6738.0 5812.0 5926.0 5844.0 5706.0 5866.0\n6800.0 5864.0 5970.0 5842.0 5710.0 5878.0\n6800.0 5874.0 5976.0 5846.0 5648.0 5812.0\n6804.0 5810.0 5972.0 5832.0 5710.0 5864.0\n6734.0 5826.0 5964.0 5822.0 5704.0 5864.0\n6744.0 5800.0 5980.0 5852.0 5708.0 5866.0\n6812.0 5868.0 5924.0 5772.0 5716.0 5810.0\n6810.0 5866.0 5962.0 5842.0 5710.0 5862.0\n6812.0 5868.0 5966.0 5846.0 5706.0 5858.0\n6812.0 5880.0 5968.0 5840.0 5716.0 5866.0\n6816.0 5866.0 5964.0 5846.0 5708.0 5868.0\n6816.0 5866.0 5970.0 5842.0 5704.0 5868.0\n6806.0 5870.0 5970.0 5828.0 5704.0 5868.0\n6812.0 5866.0 5918.0 5774.0 5702.0 5864.0\n6804.0 5880.0 5958.0 5842.0 5648.0 5818.0\n6798.0 5866.0 5972.0 5830.0 5702.0 5868.0\n6802.0 5870.0 5968.0 5832.0 5700.0 5868.0\n6814.0 5864.0 5970.0 5836.0 5708.0 5860.0\n6806.0 5866.0 5966.0 5828.0 5700.0 5864.0\n6812.0 5870.0 5972.0 5838.0 5652.0 5870.0\n6798.0 5866.0 5966.0 5836.0 5714.0 5862.0\n6808.0 5864.0 5972.0 5842.0 5698.0 5858.0\n6804.0 5862.0 5964.0 5838.0 5712.0 5868.0\n6814.0 5862.0 5972.0 5844.0 5716.0 5868.0\n6806.0 5864.0 5970.0 5830.0 5700.0 5866.0\n6816.0 5868.0 5962.0 5840.0 5710.0 5868.0\n6820.0 5862.0 5902.0 5834.0 5702.0 5860.0\n6810.0 5868.0 5962.0 5846.0 5708.0 5864.0\n6806.0 5864.0 5964.0 5848.0 5648.0 5864.0\n6818.0 5872.0 5968.0 5842.0 5706.0 5874.0\n6816.0 5876.0 5978.0 5850.0 5706.0 5874.0\n6810.0 5876.0 5972.0 5834.0 5706.0 5868.0\n6806.0 5862.0 5966.0 5838.0 5704.0 5876.0\n6804.0 5868.0 5972.0 5836.0 5710.0 5868.0\n6812.0 5876.0 5910.0 5834.0 5716.0 5862.0\n6772.0 5862.0 5972.0 5850.0 5720.0 5864.0\n6858.0 5872.0 5970.0 5856.0 5712.0 5864.0\n6892.0 5886.0 5974.0 5848.0 5728.0 5860.0\n6872.0 5874.0 5924.0 5856.0 5750.0 5804.0\n6988.0 5892.0 5990.0 5868.0 5762.0 5872.0\n7008.0 5890.0 5998.0 5876.0 5774.0 5880.0\n7022.0 5900.0 6012.0 5896.0 5794.0 5870.0\n7028.0 5902.0 6022.0 5904.0 5818.0 5872.0\n7078.0 5906.0 6054.0 5982.0 5894.0 5878.0\n7102.0 5910.0 6002.0 6014.0 5932.0 5882.0\n7180.0 5912.0 6074.0 6140.0 6030.0 5880.0\n7202.0 5908.0 6096.0 6212.0 6066.0 5884.0\n7186.0 5914.0 6042.0 6286.0 6166.0 5826.0\n7276.0 5924.0 6116.0 6312.0 6210.0 5886.0\n7310.0 5932.0 6138.0 6318.0 6250.0 5886.0\n7254.0 5870.0 6140.0 6328.0 6276.0 5884.0\n7356.0 5936.0 6158.0 6312.0 6302.0 5894.0\n7346.0 5934.0 6164.0 6312.0 6308.0 5886.0\n7352.0 5864.0 6154.0 6312.0 6300.0 5896.0\n7348.0 5926.0 6160.0 6308.0 6294.0 5884.0\n7340.0 5932.0 6156.0 6296.0 6276.0 5876.0\n7344.0 5922.0 6154.0 6286.0 6250.0 5876.0\n7338.0 5926.0 6142.0 6292.0 6166.0 5818.0\n7326.0 5922.0 6124.0 6280.0 6174.0 5870.0\n7326.0 5906.0 6120.0 6278.0 6134.0 5878.0\n7312.0 5914.0 6116.0 6260.0 6056.0 5874.0\n7252.0 5844.0 6108.0 6214.0 6030.0 5874.0\n7166.0 5898.0 6094.0 6174.0 5966.0 5870.0\n7208.0 5890.0 6078.0 6156.0 5926.0 5880.0\n7192.0 5886.0 6076.0 6124.0 5884.0 5878.0\n7160.0 5884.0 6066.0 6088.0 5856.0 5884.0\n7156.0 5882.0 6006.0 6074.0 5824.0 5866.0\n7096.0 5876.0 6050.0 6054.0 5792.0 5868.0\n7090.0 5886.0 6050.0 6048.0 5786.0 5870.0\n7078.0 5874.0 6036.0 6010.0 5772.0 5870.0\n7074.0 5868.0 6032.0 6014.0 5766.0 5882.0\n7052.0 5862.0 6032.0 5974.0 5758.0 5862.0\n7048.0 5880.0 6022.0 5974.0 5762.0 5878.0\n7024.0 5878.0 6026.0 5948.0 5744.0 5874.0\n6994.0 5876.0 6014.0 5918.0 5748.0 5868.0\n6992.0 5870.0 6002.0 5906.0 5738.0 5874.0\n6984.0 5874.0 6000.0 5904.0 5726.0 5876.0\n6972.0 5878.0 5998.0 5870.0 5722.0 5866.0\n6974.0 5872.0 5994.0 5856.0 5664.0 5856.0\n6914.0 5876.0 5990.0 5848.0 5716.0 5862.0\n6912.0 5874.0 5992.0 5846.0 5716.0 5866.0\n6882.0 5878.0 5990.0 5844.0 5716.0 5868.0\n6854.0 5882.0 5982.0 5838.0 5720.0 5860.0\n6826.0 5878.0 5972.0 5848.0 5714.0 5872.0\n6822.0 5862.0 5978.0 5838.0 5714.0 5868.0\n6814.0 5874.0 5970.0 5836.0 5716.0 5864.0\n6830.0 5862.0 5976.0 5834.0 5704.0 5866.0\n6818.0 5872.0 5976.0 5790.0 5710.0 5868.0\n6824.0 5820.0 5978.0 5830.0 5718.0 5872.0\n6828.0 5878.0 5972.0 5838.0 5708.0 5870.0\n6832.0 5876.0 5974.0 5844.0 5708.0 5878.0\n6822.0 5866.0 5910.0 5834.0 5706.0 5868.0\n6824.0 5868.0 5968.0 5828.0 5710.0 5860.0\n6822.0 5878.0 5976.0 5832.0 5710.0 5860.0\n6824.0 5870.0 5966.0 5834.0 5704.0 5870.0\n6820.0 5806.0 5978.0 5828.0 5704.0 5864.0\n6826.0 5830.0 5974.0 5832.0 5708.0 5870.0\n6822.0 5876.0 5966.0 5828.0 5716.0 5864.0\n6822.0 5870.0 5972.0 5820.0 5708.0 5862.0\n6820.0 5872.0 5970.0 5824.0 5716.0 5868.0\n6822.0 5864.0 5972.0 5826.0 5718.0 5874.0\n6818.0 5872.0 5974.0 5820.0 5702.0 5868.0\n6822.0 5822.0 5972.0 5830.0 5712.0 5864.0\n6818.0 5870.0 5978.0 5828.0 5704.0 5864.0\n6820.0 5874.0 5962.0 5822.0 5698.0 5870.0\n6814.0 5876.0 5966.0 5832.0 5706.0 5862.0\n6818.0 5860.0 5972.0 5832.0 5648.0 5806.0\n6810.0 5868.0 5958.0 5822.0 5704.0 5868.0\n6806.0 5864.0 5962.0 5828.0 5710.0 5868.0\n6812.0 5876.0 5968.0 5824.0 5712.0 5864.0\n6760.0 5870.0 5960.0 5826.0 5710.0 5868.0\n6812.0 5868.0 5908.0 5822.0 5706.0 5864.0\n6812.0 5868.0 5962.0 5826.0 5706.0 5862.0\n6802.0 5868.0 5970.0 5814.0 5708.0 5862.0\n6812.0 5870.0 5956.0 5830.0 5694.0 5866.0\n6814.0 5870.0 5972.0 5832.0 5698.0 5854.0\n6812.0 5870.0 5962.0 5812.0 5712.0 5876.0\n6808.0 5872.0 5956.0 5822.0 5702.0 5858.0\n6814.0 5864.0 5904.0 5830.0 5712.0 5820.0\n6820.0 5864.0 5956.0 5832.0 5700.0 5860.0\n6808.0 5874.0 5962.0 5814.0 5706.0 5864.0\n6812.0 5870.0 5952.0 5820.0 5708.0 5872.0\n6814.0 5872.0 5964.0 5826.0 5712.0 5862.0\n6820.0 5872.0 5954.0 5824.0 5712.0 5866.0\n6812.0 5862.0 5960.0 5826.0 5704.0 5864.0\n6810.0 5866.0 5960.0 5822.0 5704.0 5870.0\n6814.0 5868.0 5950.0 5822.0 5702.0 5856.0\n6816.0 5856.0 5966.0 5820.0 5710.0 5854.0\n6808.0 5866.0 5916.0 5810.0 5704.0 5862.0\n6810.0 5862.0 5958.0 5824.0 5710.0 5866.0\n6812.0 5864.0 5956.0 5828.0 5704.0 5870.0\n6804.0 5866.0 5958.0 5814.0 5704.0 5862.0\n6812.0 5858.0 5952.0 5830.0 5708.0 5866.0\n6808.0 5866.0 5952.0 5822.0 5702.0 5868.0\n6818.0 5862.0 5950.0 5824.0 5706.0 5864.0\n6806.0 5860.0 5950.0 5830.0 5710.0 5860.0\n6810.0 5860.0 5950.0 5826.0 5706.0 5862.0\n6808.0 5856.0 5948.0 5822.0 5702.0 5870.0\n6810.0 5860.0 5956.0 5828.0 5702.0 5864.0\n6810.0 5866.0 5960.0 5826.0 5706.0 5862.0\n6808.0 5864.0 5956.0 5824.0 5702.0 5858.0\n6814.0 5864.0 5946.0 5814.0 5712.0 5862.0\n6802.0 5866.0 5962.0 5820.0 5700.0 5858.0\n6808.0 5854.0 5952.0 5820.0 5704.0 5872.0\n6816.0 5870.0 5952.0 5824.0 5710.0 5856.0\n6812.0 5856.0 5946.0 5818.0 5650.0 5868.0\n6804.0 5872.0 5948.0 5816.0 5702.0 5872.0\n6802.0 5866.0 5960.0 5828.0 5704.0 5868.0\n6810.0 5858.0 5946.0 5818.0 5698.0 5858.0\n6814.0 5864.0 5956.0 5816.0 5706.0 5860.0\n6808.0 5860.0 5942.0 5824.0 5700.0 5866.0\n6806.0 5858.0 5960.0 5816.0 5708.0 5858.0\n6808.0 5864.0 5962.0 5824.0 5706.0 5858.0\n6808.0 5864.0 5942.0 5816.0 5698.0 5864.0\n6808.0 5864.0 5950.0 5824.0 5704.0 5862.0\n6810.0 5862.0 5956.0 5826.0 5700.0 5858.0\n6816.0 5862.0 5948.0 5828.0 5704.0 5868.0\n6808.0 5870.0 5956.0 5824.0 5698.0 5866.0\n6808.0 5870.0 5944.0 5820.0 5710.0 5864.0\n6820.0 5860.0 5894.0 5826.0 5704.0 5860.0\n6800.0 5864.0 5948.0 5826.0 5708.0 5862.0\n6814.0 5868.0 5954.0 5822.0 5712.0 5858.0\n6806.0 5860.0 5946.0 5818.0 5706.0 5864.0\n6810.0 5856.0 5954.0 5824.0 5704.0 5858.0\n6804.0 5880.0 5946.0 5820.0 5700.0 5866.0\n6814.0 5860.0 5952.0 5830.0 5702.0 5864.0\n6800.0 5856.0 5944.0 5826.0 5708.0 5852.0\n6806.0 5866.0 5950.0 5818.0 5702.0 5858.0\n6806.0 5856.0 5952.0 5820.0 5702.0 5866.0\n6802.0 5856.0 5952.0 5828.0 5708.0 5868.0\n6806.0 5862.0 5954.0 5824.0 5706.0 5868.0\n6804.0 5868.0 5950.0 5820.0 5704.0 5860.0\n6812.0 5808.0 5952.0 5814.0 5710.0 5866.0\n6806.0 5862.0 5948.0 5818.0 5710.0 5850.0\n6800.0 5860.0 5946.0 5810.0 5702.0 5868.0\n6814.0 5868.0 5946.0 5828.0 5718.0 5860.0\n6802.0 5852.0 5948.0 5828.0 5694.0 5854.0\n6808.0 5868.0 5948.0 5822.0 5710.0 5856.0\n6802.0 5860.0 5950.0 5824.0 5694.0 5862.0\n6810.0 5866.0 5950.0 5816.0 5696.0 5858.0\n6810.0 5868.0 5956.0 5820.0 5700.0 5860.0\n6798.0 5862.0 5950.0 5830.0 5704.0 5868.0\n6804.0 5852.0 5950.0 5812.0 5708.0 5862.0\n6802.0 5856.0 5950.0 5822.0 5706.0 5872.0\n6804.0 5866.0 5948.0 5820.0 5700.0 5854.0\n6802.0 5866.0 5950.0 5820.0 5708.0 5860.0\n6806.0 5854.0 5948.0 5820.0 5706.0 5866.0\n6798.0 5858.0 5940.0 5820.0 5700.0 5862.0\n6796.0 5862.0 5956.0 5816.0 5692.0 5860.0\n6806.0 5866.0 5948.0 5816.0 5702.0 5864.0\n6806.0 5858.0 5938.0 5828.0 5704.0 5864.0\n6804.0 5862.0 5938.0 5824.0 5706.0 5870.0\n6802.0 5864.0 5946.0 5818.0 5708.0 5862.0\n6808.0 5862.0 5954.0 5828.0 5708.0 5864.0\n6812.0 5862.0 5958.0 5820.0 5704.0 5856.0\n6802.0 5852.0 5952.0 5826.0 5704.0 5868.0\n6810.0 5866.0 5962.0 5816.0 5702.0 5800.0\n6808.0 5866.0 5952.0 5824.0 5702.0 5868.0\n6806.0 5862.0 5942.0 5822.0 5704.0 5862.0\n6810.0 5862.0 5954.0 5830.0 5706.0 5872.0\n6814.0 5860.0 5948.0 5828.0 5696.0 5860.0\n6808.0 5860.0 5952.0 5830.0 5710.0 5864.0\n6810.0 5866.0 5950.0 5812.0 5706.0 5864.0\n6806.0 5860.0 5954.0 5822.0 5700.0 5856.0\n6818.0 5860.0 5956.0 5826.0 5708.0 5848.0\n6812.0 5876.0 5960.0 5814.0 5710.0 5862.0\n6814.0 5866.0 5958.0 5822.0 5700.0 5864.0\n6812.0 5864.0 5946.0 5824.0 5714.0 5864.0\n6732.0 5808.0 5944.0 5816.0 5706.0 5862.0\n6812.0 5860.0 5898.0 5764.0 5708.0 5822.0\n6820.0 5854.0 5886.0 5756.0 5702.0 5858.0\n6810.0 5860.0 5952.0 5828.0 5700.0 5868.0\n6810.0 5858.0 5950.0 5818.0 5710.0 5864.0\n6808.0 5870.0 5950.0 5820.0 5704.0 5862.0\n6810.0 5864.0 5952.0 5828.0 5710.0 5870.0\n6808.0 5814.0 5942.0 5782.0 5710.0 5860.0\n6816.0 5862.0 5946.0 5828.0 5712.0 5870.0\n6828.0 5868.0 5892.0 5818.0 5704.0 5860.0\n6804.0 5792.0 5944.0 5820.0 5708.0 5866.0\n6808.0 5866.0 5958.0 5822.0 5706.0 5872.0\n6810.0 5858.0 5954.0 5816.0 5702.0 5868.0\n6814.0 5876.0 5948.0 5826.0 5704.0 5858.0\n6812.0 5856.0 5944.0 5818.0 5706.0 5862.0\n6814.0 5856.0 5894.0 5814.0 5712.0 5860.0\n6806.0 5862.0 5944.0 5824.0 5704.0 5862.0\n6804.0 5866.0 5958.0 5822.0 5704.0 5862.0\n6810.0 5862.0 5942.0 5824.0 5702.0 5858.0\n6800.0 5864.0 5946.0 5822.0 5702.0 5864.0\n6810.0 5866.0 5956.0 5830.0 5710.0 5856.0\n6812.0 5864.0 5952.0 5822.0 5710.0 5864.0\n6812.0 5864.0 5960.0 5820.0 5710.0 5858.0\n6744.0 5812.0 5952.0 5818.0 5710.0 5856.0\n6810.0 5866.0 5956.0 5808.0 5704.0 5866.0\n6802.0 5860.0 5960.0 5824.0 5650.0 5812.0\n6808.0 5864.0 5944.0 5822.0 5706.0 5862.0\n