6824.0 5856.0 5966.0 5824.0 5694.0 5864.0\n6824.0 5864.0 5952.0 5806.0 5696.0 5856.0\n6828.0 5868.0 5958.0 5826.0 5696.0 5872.0\n6830.0 5852.0 5962.0 5814.0 5708.0 5862.0\n6760.0 5846.0 5946.0 5810.0 5700.0 5866.0\n6822.0 5860.0 5958.0 5826.0 5708.0 5864.0\n6826.0 5862.0 5958.0 5806.0 5700.0 5868.0\n6822.0 5850.0 5946.0 5814.0 5692.0 5870.0\n6822.0 5854.0 5966.0 5814.0 5700.0 5870.0\n6820.0 5848.0 5952.0 5822.0 5708.0 5866.0\n6830.0 5806.0 5960.0 5818.0 5702.0 5864.0\n6746.0 5802.0 5958.0 5820.0 5702.0 5868.0\n6824.0 5858.0 5890.0 5814.0 5756.0 5796.0\n6822.0 5856.0 5900.0 5820.0 5700.0 5864.0\n6822.0 5856.0 5942.0 5812.0 5702.0 5868.0\n6822.0 5860.0 5958.0 5818.0 5698.0 5862.0\n6742.0 5812.0 5956.0 5820.0 5702.0 5866.0\n6818.0 5868.0 5948.0 5772.0 5702.0 5868.0\n6742.0 5860.0 5950.0 5804.0 5706.0 5858.0\n6828.0 5850.0 5956.0 5818.0 5698.0 5860.0\n6820.0 5848.0 5954.0 5758.0 5698.0 5868.0\n6826.0 5818.0 5958.0 5818.0 5702.0 5862.0\n6822.0 5858.0 5956.0 5810.0 5700.0 5864.0\n6826.0 5858.0 5958.0 5786.0 5702.0 5860.0\n6820.0 5856.0 5952.0 5820.0 5698.0 5864.0\n6828.0 5868.0 5958.0 5822.0 5702.0 5862.0\n6824.0 5852.0 5956.0 5816.0 5700.0 5870.0\n6832.0 5804.0 5948.0 5822.0 5698.0 5862.0\n6830.0 5868.0 5948.0 5814.0 5704.0 5864.0\n6826.0 5852.0 5966.0 5816.0 5690.0 5862.0\n6832.0 5864.0 5950.0 5818.0 5704.0 5862.0\n6832.0 5860.0 5964.0 5820.0 5714.0 5874.0\n6830.0 5870.0 5966.0 5824.0 5706.0 5860.0\n6786.0 5872.0 5950.0 5822.0 5646.0 5870.0\n6852.0 5864.0 5968.0 5824.0 5720.0 5862.0\n6862.0 5880.0 5964.0 5832.0 5674.0 5866.0\n6880.0 5866.0 5974.0 5832.0 5714.0 5876.0\n6888.0 5874.0 5972.0 5838.0 5722.0 5868.0\n6900.0 5862.0 5978.0 5838.0 5724.0 5878.0\n6926.0 5812.0 5986.0 5782.0 5740.0 5876.0\n6952.0 5870.0 5986.0 5872.0 5752.0 5874.0\n6990.0 5874.0 5994.0 5882.0 5770.0 5866.0\n7006.0 5818.0 6002.0 5828.0 5794.0 5872.0\n7042.0 5884.0 6018.0 5906.0 5822.0 5876.0\n7078.0 5900.0 6028.0 5960.0 5852.0 5876.0\n7098.0 5886.0 6032.0 5984.0 5882.0 5876.0\n7110.0 5894.0 6046.0 6020.0 5938.0 5876.0\n7192.0 5892.0 6068.0 6140.0 6050.0 5878.0\n7202.0 5900.0 6070.0 6170.0 6084.0 5884.0\n7242.0 5906.0 6074.0 6202.0 6156.0 5874.0\n7266.0 5906.0 6078.0 6204.0 6172.0 5884.0\n7300.0 5920.0 6094.0 6200.0 6228.0 5882.0\n7292.0 5920.0 6082.0 6212.0 6240.0 5886.0\n7294.0 5914.0 6098.0 6200.0 6258.0 5882.0\n7296.0 5932.0 6102.0 6212.0 6278.0 5810.0\n7296.0 5932.0 6112.0 6210.0 6298.0 5876.0\n7290.0 5854.0 6074.0 6140.0 6308.0 5886.0\n7294.0 5926.0 6116.0 6210.0 6324.0 5880.0\n7296.0 5914.0 6116.0 6244.0 6334.0 5880.0\n7308.0 5912.0 6104.0 6254.0 6360.0 5874.0\n7308.0 5932.0 6114.0 6246.0 6356.0 5876.0\n7312.0 5922.0 6116.0 6246.0 6368.0 5884.0\n7314.0 5930.0 6120.0 6248.0 6352.0 5880.0\n7316.0 5920.0 6112.0 6246.0 6352.0 5892.0\n7302.0 5916.0 6116.0 6248.0 6304.0 5878.0\n7312.0 5922.0 6116.0 6246.0 6332.0 5882.0\n7308.0 5922.0 6110.0 6240.0 6336.0 5884.0\n7306.0 5910.0 6112.0 6234.0 6314.0 5886.0\n7304.0 5846.0 6056.0 6170.0 6230.0 5876.0\n7294.0 5902.0 6102.0 6292.0 6290.0 5878.0\n7302.0 5922.0 6094.0 6244.0 6246.0 5884.0\n7296.0 5908.0 6090.0 6230.0 6230.0 5878.0\n7288.0 5898.0 6088.0 6216.0 6182.0 5882.0\n7252.0 5902.0 6082.0 6218.0 6154.0 5878.0\n7166.0 5896.0 6072.0 6162.0 6082.0 5876.0\n7200.0 5844.0 6078.0 6174.0 6034.0 5874.0\n7200.0 5894.0 6072.0 6108.0 5984.0 5870.0\n7182.0 5886.0 6062.0 6108.0 5940.0 5870.0\n7160.0 5884.0 6052.0 6086.0 5900.0 5866.0\n7138.0 5880.0 6040.0 6068.0 5866.0 5866.0\n7100.0 5872.0 6036.0 6028.0 5834.0 5870.0\n7080.0 5872.0 6024.0 5974.0 5804.0 5862.0\n7074.0 5868.0 6024.0 6004.0 5798.0 5874.0\n7070.0 5864.0 6022.0 5990.0 5790.0 5862.0\n7044.0 5872.0 6002.0 5922.0 5758.0 5866.0\n7036.0 5862.0 6010.0 5958.0 5760.0 5870.0\n6988.0 5864.0 6002.0 5924.0 5748.0 5874.0\n6978.0 5864.0 5988.0 5858.0 5740.0 5866.0\n6980.0 5868.0 5984.0 5902.0 5730.0 5874.0\n6970.0 5866.0 5982.0 5882.0 5728.0 5862.0\n6930.0 5864.0 5980.0 5854.0 5724.0 5872.0\n6916.0 5868.0 5976.0 5842.0 5720.0 5860.0\n6916.0 5874.0 5968.0 5848.0 5710.0 5864.0\n6916.0 5872.0 5964.0 5834.0 5718.0 5856.0\n6910.0 5864.0 5962.0 5830.0 5700.0 5862.0\n6884.0 5858.0 5950.0 5822.0 5718.0 5866.0\n6856.0 5872.0 5958.0 5830.0 5712.0 5858.0\n6848.0 5860.0 5958.0 5816.0 5650.0 5860.0\n6842.0 5864.0 5962.0 5820.0 5706.0 5858.0\n6842.0 5864.0 5968.0 5828.0 5704.0 5854.0\n6820.0 5854.0 5956.0 5822.0 5704.0 5868.0\n6814.0 5856.0 5954.0 5826.0 5708.0 5858.0\n6818.0 5856.0 5954.0 5830.0 5702.0 5866.0\n6820.0 5858.0 5952.0 5832.0 5706.0 5860.0\n6816.0 5866.0 5954.0 5812.0 5700.0 5864.0\n6822.0 5854.0 5962.0 5816.0 5706.0 5866.0\n6818.0 5866.0 5964.0 5822.0 5694.0 5864.0\n6824.0 5866.0 5958.0 5814.0 5704.0 5866.0\n6818.0 5862.0 5980.0 5816.0 5708.0 5864.0\n6814.0 5864.0 5960.0 5812.0 5710.0 5860.0\n6840.0 5862.0 5910.0 5804.0 5706.0 5862.0\n6836.0 5862.0 5968.0 5822.0 5710.0 5862.0\n6840.0 5862.0 5960.0 5814.0 5710.0 5860.0\n6758.0 5864.0 5970.0 5814.0 5716.0 5868.0\n6834.0 5858.0 5962.0 5812.0 5710.0 5862.0\n6842.0 5860.0 5966.0 5820.0 5712.0 5858.0\n6842.0 5864.0 5968.0 5820.0 5716.0 5858.0\n6838.0 5858.0 5960.0 5816.0 5714.0 5864.0\n6852.0 5864.0 5974.0 5818.0 5710.0 5854.0\n6848.0 5806.0 5966.0 5752.0 5702.0 5860.0\n6848.0 5856.0 5968.0 5814.0 5704.0 5864.0\n6776.0 5860.0 5964.0 5816.0 5708.0 5862.0\n6852.0 5846.0 5898.0 5756.0 5708.0 5862.0\n6850.0 5856.0 5966.0 5816.0 5704.0 5862.0\n6854.0 5858.0 5966.0 5810.0 5714.0 5854.0\n6852.0 5866.0 5972.0 5814.0 5714.0 5850.0\n6770.0 5864.0 5966.0 5820.0 5710.0 5784.0\n6852.0 5858.0 5970.0 5822.0 5708.0 5870.0\n6846.0 5860.0 5964.0 5810.0 5710.0 5858.0\n6848.0 5866.0 5960.0 5824.0 5710.0 5866.0\n6860.0 5860.0 5960.0 5824.0 5706.0 5860.0\n6858.0 5846.0 5964.0 5818.0 5714.0 5858.0\n6850.0 5862.0 5972.0 5804.0 5710.0 5866.0\n6862.0 5868.0 5966.0 5814.0 5706.0 5854.0\n6774.0 5814.0 5970.0 5810.0 5718.0 5864.0\n6856.0 5854.0 5964.0 5816.0 5718.0 5860.0\n6860.0 5860.0 5966.0 5810.0 5654.0 5804.0\n6850.0 5860.0 5964.0 5816.0 5714.0 5860.0\n6854.0 5854.0 5970.0 5810.0 5712.0 5860.0\n6854.0 5864.0 5962.0 5762.0 5716.0 5864.0\n6864.0 5868.0 5956.0 5816.0 5708.0 5858.0\n6860.0 5856.0 5968.0 5808.0 5708.0 5862.0\n6856.0 5864.0 5970.0 5816.0 5708.0 5860.0\n6854.0 5856.0 5910.0 5820.0 5712.0 5864.0\n6856.0 5864.0 5954.0 5758.0 5708.0 5862.0\n6854.0 5864.0 5962.0 5826.0 5710.0 5850.0\n6860.0 5868.0 5962.0 5822.0 5714.0 5858.0\n6774.0 5862.0 5966.0 5824.0 5704.0 5852.0\n6850.0 5854.0 5954.0 5806.0 5716.0 5866.0\n6846.0 5872.0 5966.0 5826.0 5708.0 5864.0\n6860.0 5854.0 5902.0 5816.0 5706.0 5856.0\n6846.0 5856.0 5964.0 5818.0 5714.0 5864.0\n6858.0 5860.0 5962.0 5816.0 5714.0 5862.0\n6858.0 5854.0 5960.0 5810.0 5710.0 5862.0\n6850.0 5866.0 5964.0 5820.0 5714.0 5868.0\n6858.0 5862.0 5962.0 5818.0 5708.0 5862.0\n6852.0 5864.0 5954.0 5818.0 5646.0 5862.0\n6860.0 5854.0 5976.0 5818.0 5706.0 5862.0\n6850.0 5862.0 5924.0 5822.0 5716.0 5862.0\n6852.0 5854.0 5958.0 5812.0 5710.0 5860.0\n6852.0 5858.0 5962.0 5822.0 5702.0 5858.0\n6852.0 5856.0 5966.0 5816.0 5712.0 5856.0\n6846.0 5868.0 5962.0 5806.0 5710.0 5858.0\n6840.0 5860.0 5960.0 5820.0 5710.0 5860.0\n6848.0 5852.0 5954.0 5812.0 5710.0 5864.0\n6848.0 5854.0 5958.0 5746.0 5710.0 5860.0\n6842.0 5854.0 5964.0 5810.0 5710.0 5868.0\n6844.0 5848.0 5964.0 5818.0 5712.0 5858.0\n6848.0 5856.0 5966.0 5818.0 5702.0 5858.0\n6856.0 5856.0 5964.0 5814.0 5702.0 5864.0\n6852.0 5864.0 5958.0 5818.0 5712.0 5856.0\n6844.0 5856.0 5956.0 5812.0 5702.0 5810.0\n6850.0 5856.0 5948.0 5820.0 5714.0 5858.0\n6768.0 5854.0 5966.0 5804.0 5708.0 5854.0\n6848.0 5864.0 5964.0 5810.0 5714.0 5856.0\n6852.0 5856.0 5956.0 5814.0 5698.0 5864.0\n6842.0 5860.0 5954.0 5818.0 5704.0 5862.0\n6842.0 5856.0 5968.0 5812.0 5706.0 5862.0\n6844.0 5858.0 5962.0 5806.0 5700.0 5872.0\n6840.0 5858.0 5906.0 5814.0 5708.0 5862.0\n6852.0 5866.0 5958.0 5822.0 5702.0 5866.0\n6846.0 5856.0 5966.0 5808.0 5656.0 5864.0\n6842.0 5864.0 5952.0 5812.0 5708.0 5866.0\n6844.0 5812.0 5962.0 5756.0 5706.0 5854.0\n6842.0 5860.0 5954.0 5810.0 5704.0 5872.0\n6842.0 5854.0 5956.0 5814.0 5712.0 5868.0\n6848.0 5862.0 5960.0 5822.0 5704.0 5856.0\n6848.0 5854.0 5892.0 5750.0 5704.0 5864.0\n6842.0 5860.0 5956.0 5802.0 5708.0 5864.0\n6842.0 5858.0 5964.0 5816.0 5708.0 5858.0\n6838.0 5860.0 5946.0 5810.0 5702.0 5866.0\n6842.0 5850.0 5958.0 5866.0 5704.0 5854.0\n6838.0 5852.0 5956.0 5802.0 5704.0 5864.0\n6836.0 5852.0 5964.0 5822.0 5710.0 5868.0\n6838.0 5860.0 5956.0 5808.0 5712.0 5862.0\n6836.0 5778.0 5960.0 5816.0 5638.0 5860.0\n6846.0 5860.0 5964.0 5820.0 5706.0 5860.0\n6846.0 5862.0 5954.0 5826.0 5706.0 5864.0\n6836.0 5862.0 5956.0 5818.0 5698.0 5860.0\n6836.0 5858.0 5954.0 5820.0 5708.0 5856.0\n6838.0 5862.0 5958.0 5814.0 5706.0 5862.0\n6846.0 5848.0 5964.0 5744.0 5698.0 5864.0\n6836.0 5866.0 5958.0 5802.0 5700.0 5868.0\n6848.0 5860.0 5898.0 5750.0 5704.0 5862.0\n6836.0 5856.0 5960.0 5814.0 5704.0 5864.0\n6836.0 5860.0 5954.0 5766.0 5706.0 5862.0\n6846.0 5866.0 5956.0 5808.0 5710.0 5852.0\n6840.0 5856.0 5952.0 5810.0 5712.0 5864.0\n6840.0 5866.0 5956.0 5812.0 5716.0 5868.0\n6830.0 5858.0 5896.0 5752.0 5700.0 5858.0\n6832.0 5852.0 5956.0 5820.0 5706.0 5866.0\n6766.0 5862.0 5952.0 5808.0 5698.0 5900.0\n6844.0 5860.0 5966.0 5812.0 5694.0 5868.0\n6792.0 5860.0 5956.0 5810.0 5702.0 5862.0\n6838.0 5854.0 5960.0 5802.0 5700.0 5864.0\n6842.0 5854.0 5954.0 5818.0 5712.0 5860.0\n6844.0 5856.0 5956.0 5818.0 5710.0 5856.0\n6842.0 5854.0 5950.0 5814.0 5698.0 5856.0\n6844.0 5852.0 5962.0 5806.0 5698.0 5866.0\n6830.0 5850.0 5960.0 5804.0 5714.0 5866.0\n6846.0 5856.0 5958.0 5814.0 5698.0 5876.0\n6848.0 5858.0 5956.0 5824.0 5702.0 5866.0\n6836.0 5854.0 5962.0 5806.0 5704.0 5868.0\n6836.0 5854.0 5958.0 5808.0 5698.0 5862.0\n6844.0 5852.0 5962.0 5806.0 5716.0 5862.0\n6844.0 5854.0 5968.0 5808.0 5708.0 5860.0\n6838.0 5850.0 5964.0 5810.0 5706.0 5866.0\n6840.0 5858.0 5952.0 5812.0 5702.0 5866.0\n6834.0 5860.0 5952.0 5808.0 5706.0 5860.0\n6838.0 5856.0 5950.0 5816.0 5710.0 5868.0\n6838.0 5858.0 5950.0 5758.0 5702.0 5862.0\n6840.0 5856.0 5958.0 5826.0 5704.0 5864.0\n6840.0 5792.0 5952.0 5858.0 5704.0 5860.0\n6758.0 5818.0 5956.0 5816.0 5704.0 5860.0\n6760.0 5858.0 5950.0 5816.0 5704.0 5864.0\n6844.0 5806.0 5954.0 5812.0 5702.0 5856.0\n