6898.0 5876.0 5990.0 5870.0 5712.0 5866.0\n6900.0 5870.0 5998.0 5872.0 5716.0 5870.0\n6894.0 5866.0 5982.0 5876.0 5712.0 5866.0\n6902.0 5866.0 5994.0 5868.0 5714.0 5870.0\n6906.0 5876.0 5994.0 5880.0 5714.0 5866.0\n6900.0 5868.0 5992.0 5874.0 5714.0 5870.0\n6900.0 5868.0 5990.0 5870.0 5716.0 5864.0\n6902.0 5872.0 5990.0 5876.0 5720.0 5858.0\n6888.0 5858.0 5998.0 5888.0 5718.0 5870.0\n6898.0 5870.0 5992.0 5876.0 5722.0 5874.0\n6898.0 5870.0 5994.0 5876.0 5714.0 5866.0\n6894.0 5876.0 5990.0 5838.0 5716.0 5874.0\n6898.0 5876.0 5992.0 5872.0 5714.0 5866.0\n6902.0 5864.0 5988.0 5874.0 5680.0 5830.0\n6898.0 5876.0 6002.0 5884.0 5714.0 5868.0\n6900.0 5868.0 5986.0 5826.0 5716.0 5870.0\n6898.0 5870.0 5990.0 5874.0 5722.0 5876.0\n6898.0 5872.0 6000.0 5866.0 5716.0 5872.0\n6910.0 5882.0 5990.0 5866.0 5720.0 5870.0\n6896.0 5868.0 5988.0 5874.0 5716.0 5870.0\n6896.0 5874.0 6000.0 5880.0 5710.0 5874.0\n6898.0 5872.0 5978.0 5876.0 5718.0 5864.0\n6888.0 5866.0 5994.0 5884.0 5706.0 5874.0\n6906.0 5868.0 5992.0 5872.0 5716.0 5862.0\n6898.0 5876.0 5986.0 5872.0 5674.0 5866.0\n6898.0 5876.0 5994.0 5876.0 5712.0 5866.0\n6900.0 5880.0 5994.0 5868.0 5718.0 5866.0\n6894.0 5870.0 5982.0 5868.0 5714.0 5876.0\n6894.0 5872.0 5986.0 5868.0 5674.0 5876.0\n6886.0 5872.0 5982.0 5868.0 5708.0 5866.0\n6890.0 5870.0 5980.0 5866.0 5706.0 5870.0\n6826.0 5840.0 5988.0 5866.0 5718.0 5878.0\n6894.0 5878.0 5988.0 5878.0 5654.0 5862.0\n6894.0 5882.0 5986.0 5864.0 5722.0 5870.0\n6888.0 5872.0 5986.0 5876.0 5712.0 5870.0\n6884.0 5870.0 5990.0 5876.0 5718.0 5866.0\n6888.0 5870.0 5994.0 5876.0 5670.0 5866.0\n6886.0 5868.0 5978.0 5874.0 5726.0 5872.0\n6892.0 5886.0 5988.0 5870.0 5714.0 5860.0\n6892.0 5870.0 5994.0 5876.0 5708.0 5876.0\n6894.0 5870.0 5988.0 5874.0 5708.0 5876.0\n6896.0 5878.0 5996.0 5884.0 5718.0 5872.0\n6898.0 5884.0 5996.0 5890.0 5718.0 5870.0\n6918.0 5882.0 5994.0 5884.0 5728.0 5870.0\n6932.0 5880.0 5968.0 5892.0 5728.0 5864.0\n6950.0 5890.0 6016.0 5892.0 5726.0 5878.0\n6968.0 5880.0 6016.0 5892.0 5734.0 5874.0\n7002.0 5892.0 6022.0 5908.0 5774.0 5878.0\n7032.0 5896.0 6038.0 5920.0 5796.0 5866.0\n7094.0 5896.0 6042.0 6004.0 5842.0 5874.0\n7118.0 5902.0 6054.0 6020.0 5864.0 5878.0\n7180.0 5910.0 6070.0 6080.0 5934.0 5878.0\n7186.0 5904.0 6070.0 6116.0 5968.0 5878.0\n7200.0 5914.0 6098.0 6174.0 6018.0 5886.0\n7210.0 5924.0 6116.0 6210.0 6072.0 5878.0\n7234.0 5928.0 6134.0 6244.0 6114.0 5884.0\n7254.0 5926.0 6140.0 6270.0 6174.0 5884.0\n7294.0 5926.0 6132.0 6274.0 6218.0 5892.0\n7302.0 5932.0 6154.0 6266.0 6250.0 5892.0\n7302.0 5934.0 6160.0 6276.0 6280.0 5894.0\n7298.0 5932.0 6154.0 6272.0 6284.0 5890.0\n7304.0 5944.0 6136.0 6268.0 6292.0 5882.0\n7302.0 5916.0 6156.0 6316.0 6306.0 5888.0\n7298.0 5946.0 6166.0 6274.0 6322.0 5884.0\n7302.0 5948.0 6156.0 6266.0 6318.0 5878.0\n7294.0 5936.0 6168.0 6266.0 6318.0 5882.0\n7302.0 5938.0 6166.0 6260.0 6316.0 5892.0\n7288.0 5930.0 6154.0 6268.0 6304.0 5878.0\n7232.0 5936.0 6142.0 6264.0 6296.0 5882.0\n7290.0 5942.0 6152.0 6266.0 6284.0 5888.0\n7234.0 5902.0 6150.0 6220.0 6264.0 5882.0\n7292.0 5936.0 6138.0 6248.0 6210.0 5880.0\n7286.0 5928.0 6148.0 6246.0 6196.0 5874.0\n7282.0 5922.0 6126.0 6250.0 6140.0 5880.0\n7282.0 5928.0 6124.0 6236.0 6112.0 5884.0\n7166.0 5914.0 6112.0 6236.0 6052.0 5874.0\n7166.0 5910.0 6100.0 6192.0 6024.0 5874.0\n7200.0 5908.0 6100.0 6174.0 5954.0 5874.0\n7200.0 5904.0 6082.0 6174.0 5934.0 5880.0\n7190.0 5890.0 6070.0 6156.0 5892.0 5886.0\n7186.0 5890.0 6072.0 6116.0 5870.0 5874.0\n7182.0 5882.0 6056.0 6106.0 5784.0 5872.0\n7164.0 5890.0 6058.0 6076.0 5810.0 5874.0\n7160.0 5884.0 6048.0 6040.0 5792.0 5876.0\n7156.0 5878.0 6042.0 6042.0 5776.0 5868.0\n7140.0 5882.0 6054.0 6016.0 5774.0 5872.0\n7134.0 5876.0 6046.0 6012.0 5728.0 5880.0\n7084.0 5878.0 6024.0 5984.0 5758.0 5864.0\n7078.0 5880.0 6030.0 5966.0 5754.0 5872.0\n7050.0 5878.0 6024.0 5954.0 5738.0 5872.0\n7048.0 5878.0 6022.0 5930.0 5740.0 5866.0\n7012.0 5826.0 6002.0 5910.0 5734.0 5866.0\n6998.0 5888.0 6008.0 5884.0 5732.0 5866.0\n6930.0 5884.0 6012.0 5870.0 5734.0 5860.0\n6970.0 5880.0 6002.0 5866.0 5724.0 5866.0\n6984.0 5878.0 5996.0 5876.0 5722.0 5864.0\n6922.0 5876.0 5990.0 5856.0 5682.0 5866.0\n6930.0 5880.0 6000.0 5870.0 5718.0 5872.0\n6916.0 5874.0 5994.0 5868.0 5712.0 5874.0\n6908.0 5876.0 5992.0 5862.0 5724.0 5874.0\n6898.0 5874.0 5986.0 5870.0 5732.0 5864.0\n6898.0 5864.0 5998.0 5866.0 5722.0 5866.0\n6904.0 5882.0 5988.0 5864.0 5718.0 5864.0\n6904.0 5862.0 5988.0 5862.0 5712.0 5872.0\n6900.0 5874.0 5984.0 5870.0 5712.0 5864.0\n6894.0 5862.0 6000.0 5868.0 5716.0 5870.0\n6894.0 5860.0 6004.0 5872.0 5708.0 5872.0\n6896.0 5876.0 5988.0 5822.0 5718.0 5872.0\n6886.0 5874.0 5990.0 5868.0 5724.0 5866.0\n6898.0 5860.0 5996.0 5862.0 5720.0 5866.0\n6902.0 5870.0 5992.0 5866.0 5714.0 5858.0\n6902.0 5876.0 5994.0 5868.0 5716.0 5862.0\n6894.0 5878.0 5990.0 5866.0 5718.0 5852.0\n6884.0 5872.0 5986.0 5860.0 5714.0 5860.0\n6888.0 5874.0 5990.0 5864.0 5720.0 5870.0\n6890.0 5870.0 5978.0 5860.0 5720.0 5874.0\n6882.0 5856.0 5994.0 5864.0 5716.0 5862.0\n6888.0 5880.0 5988.0 5866.0 5720.0 5866.0\n6880.0 5872.0 5980.0 5856.0 5718.0 5872.0\n6884.0 5882.0 5998.0 5862.0 5722.0 5860.0\n6886.0 5868.0 5992.0 5852.0 5662.0 5818.0\n6882.0 5874.0 5982.0 5868.0 5718.0 5868.0\n6888.0 5872.0 5984.0 5870.0 5716.0 5872.0\n6836.0 5838.0 5986.0 5866.0 5720.0 5868.0\n6890.0 5874.0 5988.0 5868.0 5716.0 5864.0\n6888.0 5876.0 5988.0 5862.0 5722.0 5858.0\n6886.0 5876.0 5946.0 5858.0 5710.0 5862.0\n6890.0 5878.0 5988.0 5858.0 5714.0 5866.0\n6832.0 5868.0 5982.0 5862.0 5716.0 5856.0\n6888.0 5872.0 5982.0 5866.0 5724.0 5862.0\n6884.0 5876.0 5980.0 5866.0 5716.0 5866.0\n6892.0 5878.0 5986.0 5864.0 5710.0 5868.0\n6838.0 5866.0 5982.0 5862.0 5708.0 5872.0\n6836.0 5834.0 5986.0 5868.0 5714.0 5872.0\n6886.0 5882.0 5936.0 5818.0 5706.0 5866.0\n6886.0 5866.0 5942.0 5832.0 5716.0 5868.0\n6882.0 5872.0 5984.0 5864.0 5720.0 5864.0\n6886.0 5870.0 5984.0 5866.0 5710.0 5864.0\n6882.0 5840.0 5976.0 5866.0 5718.0 5864.0\n6880.0 5866.0 5986.0 5862.0 5714.0 5874.0\n6830.0 5868.0 5984.0 5870.0 5712.0 5866.0\n6882.0 5878.0 5978.0 5862.0 5716.0 5866.0\n6828.0 5822.0 5988.0 5826.0 5718.0 5870.0\n6884.0 5872.0 5980.0 5860.0 5708.0 5862.0\n6882.0 5878.0 5974.0 5866.0 5722.0 5868.0\n6830.0 5872.0 5984.0 5864.0 5712.0 5878.0\n6882.0 5840.0 5994.0 5862.0 5710.0 5872.0\n6880.0 5878.0 5984.0 5864.0 5712.0 5868.0\n6882.0 5870.0 5988.0 5866.0 5716.0 5872.0\n6884.0 5868.0 5996.0 5868.0 5724.0 5878.0\n6884.0 5830.0 6000.0 5872.0 5702.0 5860.0\n6824.0 5872.0 5988.0 5866.0 5708.0 5868.0\n6880.0 5872.0 5988.0 5864.0 5712.0 5864.0\n6886.0 5864.0 5986.0 5862.0 5712.0 5852.0\n6888.0 5874.0 5992.0 5868.0 5720.0 5866.0\n6878.0 5874.0 5948.0 5822.0 5724.0 5866.0\n6890.0 5874.0 5942.0 5858.0 5720.0 5832.0\n6884.0 5862.0 5988.0 5862.0 5676.0 5870.0\n6888.0 5870.0 5996.0 5866.0 5716.0 5864.0\n6888.0 5870.0 5994.0 5874.0 5718.0 5866.0\n6890.0 5872.0 5992.0 5860.0 5712.0 5862.0\n6894.0 5826.0 5992.0 5860.0 5720.0 5866.0\n6888.0 5870.0 5986.0 5860.0 5716.0 5864.0\n6888.0 5874.0 5990.0 5858.0 5726.0 5870.0\n6888.0 5870.0 5988.0 5858.0 5720.0 5864.0\n6886.0 5870.0 5992.0 5872.0 5722.0 5866.0\n6882.0 5876.0 5990.0 5858.0 5722.0 5872.0\n6884.0 5868.0 5990.0 5868.0 5710.0 5860.0\n6888.0 5866.0 5990.0 5856.0 5712.0 5866.0\n6886.0 5870.0 5988.0 5860.0 5684.0 5874.0\n6888.0 5870.0 5986.0 5858.0 5706.0 5874.0\n6892.0 5868.0 5986.0 5866.0 5728.0 5870.0\n6884.0 5862.0 5994.0 5874.0 5712.0 5862.0\n6880.0 5866.0 5984.0 5872.0 5710.0 5870.0\n6880.0 5864.0 5998.0 5860.0 5720.0 5874.0\n6882.0 5874.0 5988.0 5870.0 5714.0 5864.0\n6884.0 5870.0 5988.0 5870.0 5722.0 5866.0\n6888.0 5866.0 5992.0 5868.0 5718.0 5866.0\n6886.0 5822.0 5986.0 5866.0 5716.0 5862.0\n6888.0 5876.0 5990.0 5868.0 5716.0 5862.0\n6828.0 5830.0 5986.0 5872.0 5720.0 5872.0\n6884.0 5856.0 5992.0 5868.0 5714.0 5860.0\n6880.0 5868.0 5988.0 5858.0 5718.0 5856.0\n6846.0 5866.0 5938.0 5862.0 5716.0 5818.0\n6892.0 5864.0 5992.0 5868.0 5718.0 5868.0\n6882.0 5836.0 5978.0 5822.0 5718.0 5862.0\n6888.0 5872.0 5992.0 5864.0 5718.0 5860.0\n6882.0 5808.0 5980.0 5870.0 5716.0 5866.0\n6884.0 5880.0 5988.0 5870.0 5714.0 5864.0\n6882.0 5866.0 5984.0 5868.0 5712.0 5874.0\n6878.0 5862.0 5986.0 5868.0 5720.0 5884.0\n6886.0 5868.0 5988.0 5866.0 5716.0 5866.0\n6884.0 5868.0 5992.0 5860.0 5720.0 5870.0\n6878.0 5870.0 5996.0 5856.0 5718.0 5868.0\n6876.0 5866.0 5988.0 5860.0 5724.0 5860.0\n6884.0 5868.0 5994.0 5868.0 5720.0 5872.0\n6888.0 5868.0 5982.0 5874.0 5716.0 5872.0\n6886.0 5864.0 5986.0 5868.0 5720.0 5860.0\n6876.0 5874.0 5996.0 5864.0 5716.0 5858.0\n6884.0 5876.0 5988.0 5868.0 5718.0 5860.0\n6886.0 5876.0 5986.0 5864.0 5720.0 5876.0\n6878.0 5870.0 5990.0 5870.0 5720.0 5870.0\n6892.0 5868.0 5992.0 5860.0 5712.0 5868.0\n6896.0 5840.0 5982.0 5818.0 5708.0 5866.0\n6880.0 5866.0 5990.0 5830.0 5716.0 5866.0\n6830.0 5868.0 6000.0 5860.0 5716.0 5828.0\n6886.0 5878.0 5990.0 5868.0 5720.0 5866.0\n6884.0 5870.0 5986.0 5872.0 5724.0 5876.0\n6830.0 5874.0 5978.0 5874.0 5716.0 5868.0\n6880.0 5864.0 5980.0 5862.0 5712.0 5870.0\n6882.0 5864.0 5990.0 5862.0 5718.0 5868.0\n6830.0 5818.0 5990.0 5876.0 5718.0 5870.0\n6880.0 5870.0 5976.0 5868.0 5714.0 5872.0\n6886.0 5822.0 5982.0 5866.0 5712.0 5870.0\n6876.0 5864.0 5992.0 5866.0 5714.0 5866.0\n6880.0 5870.0 5980.0 5868.0 5720.0 5870.0\n6878.0 5866.0 5982.0 5876.0 5708.0 5872.0\n6880.0 5870.0 5994.0 5870.0 5716.0 5868.0\n6884.0 5864.0 5982.0 5868.0 5718.0 5860.0\n6886.0 5874.0 5988.0 5868.0 5712.0 5866.0\n6888.0 5870.0 5986.0 5860.0 5714.0 5870.0\n6890.0 5862.0 5988.0 5874.0 5716.0 5864.0\n6882.0 5872.0 5986.0 5870.0 5716.0 5866.0\n6886.0 5868.0 5994.0 5862.0 5720.0 5862.0\n6888.0 5866.0 5986.0 5864.0 5714.0 5868.0\n6880.0 5884.0 5994.0 5864.0 5720.0 5866.0\n6886.0 5860.0 5986.0 5862.0 5678.0 5866.0\n6880.0 5872.0 5976.0 5870.0 5720.0 5858.0\n6888.0 5864.0 5984.0 5862.0 5720.0 5868.0\n6892.0 5862.0 6000.0 5876.0 5722.0 5870.0\n6886.0 5866.0 5990.0 5866.0 5720.0 5870.0\n6888.0 5868.0 5990.0 5872.0 5712.0 5858.0\n6894.0 5878.0 5986.0 5870.0 5710.0 5860.0\n6884.0 5856.0 5996.0 5868.0 5714.0 5860.0\n6882.0 5876.0 5990.0 5868.0 5682.0 5862.0\n6880.0 5882.0 5984.0 5872.0 5728.0 5876.0\n6886.0 5868.0 5940.0 5820.0 5674.0 5868.0\n6888.0 5864.0 5996.0 5870.0 5720.0 5878.0\n6884.0 5832.0 5994.0 5866.0 5712.0 5874.0\n6890.0 5868.0 5984.0 5876.0 5714.0 5864.0\n6838.0 5836.0 5990.0 5864.0 5710.0 5870.0\n6882.0 5870.0 5984.0 5860.0 5714.0 5866.0\n6898.0 5870.0 5992.0 5866.0 5672.0 5828.0\n6882.0 5876.0 5992.0 5870.0 5714.0 5862.0\n6880.0 5874.0 5988.0 5878.0 5718.0 5862.0\n6886.0 5868.0 5990.0 5874.0 5724.0 5866.0\n