6838.0 5856.0 5952.0 5822.0 5706.0 5860.0\n6844.0 5796.0 5970.0 5828.0 5702.0 5866.0\n6844.0 5862.0 5900.0 5838.0 5706.0 5870.0\n6838.0 5862.0 5948.0 5826.0 5712.0 5866.0\n6848.0 5852.0 5966.0 5832.0 5702.0 5870.0\n6836.0 5862.0 5962.0 5830.0 5710.0 5876.0\n6838.0 5860.0 5970.0 5830.0 5704.0 5860.0\n6842.0 5864.0 5968.0 5832.0 5702.0 5872.0\n6840.0 5852.0 5900.0 5772.0 5700.0 5864.0\n6838.0 5820.0 5964.0 5828.0 5700.0 5862.0\n6838.0 5858.0 5962.0 5846.0 5702.0 5858.0\n6840.0 5864.0 5964.0 5836.0 5706.0 5858.0\n6844.0 5864.0 5970.0 5832.0 5704.0 5866.0\n6836.0 5852.0 5952.0 5828.0 5702.0 5856.0\n6852.0 5858.0 5964.0 5824.0 5710.0 5868.0\n6846.0 5860.0 5958.0 5836.0 5652.0 5868.0\n6840.0 5854.0 5958.0 5840.0 5704.0 5856.0\n6840.0 5860.0 5966.0 5826.0 5708.0 5864.0\n6844.0 5862.0 5970.0 5836.0 5708.0 5870.0\n6842.0 5862.0 5962.0 5830.0 5708.0 5868.0\n6842.0 5862.0 5962.0 5832.0 5700.0 5868.0\n6848.0 5858.0 5958.0 5836.0 5698.0 5864.0\n6846.0 5860.0 5970.0 5832.0 5714.0 5862.0\n6854.0 5858.0 5966.0 5844.0 5706.0 5866.0\n6858.0 5850.0 5958.0 5846.0 5714.0 5872.0\n6868.0 5864.0 5976.0 5842.0 5726.0 5856.0\n6872.0 5862.0 5930.0 5840.0 5720.0 5866.0\n6872.0 5860.0 5972.0 5840.0 5714.0 5880.0\n6888.0 5870.0 5980.0 5858.0 5730.0 5870.0\n6910.0 5862.0 5982.0 5870.0 5722.0 5870.0\n6930.0 5862.0 5984.0 5876.0 5738.0 5870.0\n6964.0 5866.0 6000.0 5910.0 5752.0 5872.0\n6986.0 5862.0 6014.0 5930.0 5770.0 5874.0\n7006.0 5882.0 6020.0 5962.0 5806.0 5880.0\n7026.0 5886.0 6036.0 6008.0 5854.0 5874.0\n7010.0 5824.0 6080.0 6090.0 5926.0 5878.0\n7126.0 5890.0 6012.0 6116.0 5984.0 5878.0\n7162.0 5910.0 6090.0 6164.0 6050.0 5878.0\n7204.0 5900.0 6096.0 6190.0 6108.0 5880.0\n7244.0 5902.0 6104.0 6182.0 6174.0 5886.0\n7278.0 5924.0 6118.0 6190.0 6212.0 5886.0\n7286.0 5930.0 6110.0 6202.0 6226.0 5814.0\n7286.0 5924.0 6118.0 6204.0 6252.0 5880.0\n7208.0 5918.0 6122.0 6198.0 6264.0 5878.0\n7294.0 5926.0 6128.0 6204.0 6284.0 5882.0\n7294.0 5938.0 6126.0 6188.0 6292.0 5874.0\n7290.0 5920.0 6124.0 6202.0 6294.0 5886.0\n7296.0 5920.0 6134.0 6206.0 6296.0 5890.0\n7286.0 5924.0 6122.0 6200.0 6268.0 5878.0\n7296.0 5930.0 6118.0 6188.0 6266.0 5878.0\n7292.0 5916.0 6120.0 6194.0 6188.0 5882.0\n7292.0 5924.0 6114.0 6134.0 6244.0 5884.0\n7288.0 5914.0 6118.0 6196.0 6232.0 5884.0\n7286.0 5918.0 6098.0 6196.0 6204.0 5884.0\n7288.0 5920.0 6106.0 6194.0 6192.0 5870.0\n7290.0 5848.0 6104.0 6182.0 6170.0 5874.0\n7278.0 5910.0 6098.0 6174.0 6152.0 5870.0\n7166.0 5910.0 6026.0 6174.0 6106.0 5882.0\n7166.0 5906.0 6086.0 6170.0 6082.0 5880.0\n7192.0 5892.0 6090.0 6106.0 6034.0 5878.0\n7188.0 5902.0 6074.0 6164.0 5994.0 5878.0\n7148.0 5898.0 6054.0 6108.0 5988.0 5866.0\n7118.0 5858.0 6058.0 6114.0 5934.0 5874.0\n7108.0 5886.0 6044.0 6082.0 5922.0 5868.0\n7106.0 5874.0 6042.0 6016.0 5898.0 5876.0\n7100.0 5884.0 6044.0 6074.0 5876.0 5876.0\n7098.0 5872.0 6040.0 5998.0 5848.0 5872.0\n7084.0 5876.0 6038.0 6034.0 5834.0 5876.0\n7080.0 5886.0 6022.0 6026.0 5818.0 5862.0\n7062.0 5874.0 6026.0 6016.0 5808.0 5876.0\n7010.0 5874.0 6016.0 5990.0 5768.0 5870.0\n7004.0 5864.0 6016.0 5994.0 5768.0 5870.0\n6990.0 5790.0 6008.0 5910.0 5762.0 5878.0\n6990.0 5870.0 6014.0 5962.0 5758.0 5868.0\n6988.0 5870.0 6002.0 5944.0 5748.0 5866.0\n6988.0 5868.0 5986.0 5882.0 5750.0 5878.0\n6976.0 5874.0 5988.0 5910.0 5742.0 5864.0\n6970.0 5872.0 5992.0 5908.0 5732.0 5870.0\n6968.0 5880.0 5984.0 5890.0 5726.0 5866.0\n6934.0 5876.0 5982.0 5882.0 5730.0 5864.0\n6920.0 5874.0 5974.0 5866.0 5724.0 5864.0\n6910.0 5866.0 5976.0 5864.0 5724.0 5860.0\n6898.0 5870.0 5970.0 5838.0 5720.0 5866.0\n6892.0 5860.0 5972.0 5838.0 5710.0 5862.0\n6866.0 5868.0 5972.0 5832.0 5706.0 5864.0\n6872.0 5860.0 5970.0 5826.0 5704.0 5860.0\n6862.0 5862.0 5978.0 5832.0 5708.0 5860.0\n6860.0 5858.0 5954.0 5840.0 5710.0 5866.0\n6846.0 5864.0 5952.0 5828.0 5706.0 5866.0\n6844.0 5856.0 5968.0 5828.0 5706.0 5860.0\n6848.0 5866.0 5960.0 5834.0 5712.0 5862.0\n6846.0 5868.0 5962.0 5826.0 5712.0 5868.0\n6850.0 5860.0 5910.0 5756.0 5644.0 5866.0\n6852.0 5862.0 5960.0 5828.0 5696.0 5862.0\n6846.0 5858.0 5952.0 5824.0 5708.0 5862.0\n6832.0 5862.0 5958.0 5818.0 5706.0 5864.0\n6842.0 5858.0 5954.0 5832.0 5712.0 5864.0\n6842.0 5862.0 5968.0 5814.0 5706.0 5860.0\n6840.0 5862.0 5968.0 5826.0 5702.0 5864.0\n6852.0 5862.0 5956.0 5816.0 5702.0 5864.0\n6846.0 5866.0 5958.0 5834.0 5712.0 5866.0\n6840.0 5856.0 5958.0 5830.0 5642.0 5800.0\n6844.0 5798.0 5968.0 5830.0 5714.0 5870.0\n6840.0 5862.0 5956.0 5814.0 5700.0 5862.0\n6854.0 5862.0 5958.0 5814.0 5700.0 5870.0\n6846.0 5868.0 5960.0 5838.0 5710.0 5878.0\n6840.0 5856.0 5960.0 5830.0 5704.0 5860.0\n6840.0 5856.0 5962.0 5830.0 5708.0 5870.0\n6844.0 5860.0 5952.0 5822.0 5712.0 5858.0\n6838.0 5864.0 5960.0 5830.0 5700.0 5860.0\n6836.0 5858.0 5966.0 5828.0 5702.0 5856.0\n6838.0 5862.0 5962.0 5822.0 5706.0 5858.0\n6776.0 5854.0 5956.0 5824.0 5706.0 5862.0\n6828.0 5862.0 5960.0 5824.0 5704.0 5868.0\n6834.0 5860.0 5962.0 5836.0 5720.0 5866.0\n6840.0 5798.0 5962.0 5824.0 5706.0 5860.0\n6764.0 5830.0 5962.0 5830.0 5708.0 5866.0\n6836.0 5866.0 5960.0 5824.0 5706.0 5864.0\n6834.0 5862.0 5960.0 5820.0 5708.0 5868.0\n6840.0 5862.0 5946.0 5814.0 5700.0 5870.0\n6836.0 5856.0 5966.0 5832.0 5710.0 5870.0\n6838.0 5856.0 5968.0 5828.0 5708.0 5862.0\n6832.0 5854.0 5944.0 5758.0 5642.0 5858.0\n6840.0 5802.0 5958.0 5766.0 5702.0 5870.0\n6836.0 5862.0 5954.0 5826.0 5706.0 5866.0\n6844.0 5866.0 5964.0 5828.0 5710.0 5876.0\n6758.0 5842.0 5966.0 5822.0 5704.0 5866.0\n6830.0 5854.0 5956.0 5812.0 5706.0 5858.0\n6836.0 5860.0 5962.0 5824.0 5708.0 5858.0\n6834.0 5854.0 5954.0 5836.0 5704.0 5868.0\n6834.0 5854.0 5946.0 5828.0 5704.0 5868.0\n6834.0 5858.0 5960.0 5822.0 5706.0 5864.0\n6830.0 5868.0 5950.0 5818.0 5702.0 5864.0\n6830.0 5864.0 5960.0 5824.0 5712.0 5860.0\n6830.0 5854.0 5960.0 5826.0 5708.0 5870.0\n6832.0 5864.0 5964.0 5824.0 5700.0 5866.0\n6828.0 5858.0 5960.0 5832.0 5702.0 5868.0\n6830.0 5870.0 5954.0 5832.0 5704.0 5864.0\n6830.0 5868.0 5960.0 5822.0 5708.0 5876.0\n6828.0 5862.0 5952.0 5826.0 5708.0 5864.0\n6824.0 5858.0 5962.0 5834.0 5704.0 5868.0\n6828.0 5856.0 5962.0 5824.0 5652.0 5858.0\n6832.0 5860.0 5956.0 5820.0 5700.0 5866.0\n6830.0 5862.0 5958.0 5824.0 5704.0 5862.0\n6834.0 5858.0 5952.0 5824.0 5702.0 5868.0\n6844.0 5862.0 5958.0 5826.0 5700.0 5864.0\n6834.0 5858.0 5952.0 5826.0 5710.0 5858.0\n6832.0 5858.0 5962.0 5814.0 5706.0 5860.0\n6834.0 5862.0 5960.0 5822.0 5710.0 5866.0\n6828.0 5854.0 5954.0 5830.0 5706.0 5872.0\n6828.0 5858.0 5956.0 5834.0 5704.0 5866.0\n6836.0 5802.0 5956.0 5824.0 5708.0 5868.0\n6836.0 5856.0 5958.0 5828.0 5714.0 5862.0\n6826.0 5850.0 5900.0 5828.0 5708.0 5868.0\n6842.0 5810.0 5954.0 5818.0 5712.0 5870.0\n6834.0 5864.0 5950.0 5816.0 5702.0 5860.0\n6836.0 5862.0 5954.0 5836.0 5650.0 5798.0\n6832.0 5852.0 5956.0 5828.0 5696.0 5874.0\n6836.0 5850.0 5960.0 5836.0 5700.0 5874.0\n6762.0 5866.0 5960.0 5790.0 5712.0 5802.0\n6840.0 5870.0 5960.0 5828.0 5712.0 5870.0\n6838.0 5862.0 5956.0 5814.0 5708.0 5866.0\n6830.0 5858.0 5966.0 5830.0 5648.0 5832.0\n6840.0 5858.0 5960.0 5820.0 5710.0 5862.0\n6840.0 5860.0 5958.0 5820.0 5702.0 5854.0\n6762.0 5804.0 5956.0 5830.0 5698.0 5854.0\n6836.0 5860.0 5958.0 5818.0 5702.0 5870.0\n6824.0 5858.0 5962.0 5826.0 5712.0 5872.0\n6830.0 5856.0 5952.0 5828.0 5706.0 5862.0\n6840.0 5866.0 5904.0 5826.0 5706.0 5858.0\n6836.0 5860.0 5956.0 5826.0 5708.0 5862.0\n6836.0 5858.0 5962.0 5826.0 5714.0 5868.0\n6826.0 5854.0 5958.0 5826.0 5692.0 5864.0\n6832.0 5854.0 5956.0 5826.0 5702.0 5868.0\n6840.0 5856.0 5956.0 5830.0 5704.0 5870.0\n6836.0 5866.0 5958.0 5818.0 5702.0 5870.0\n6836.0 5856.0 5956.0 5820.0 5704.0 5858.0\n6840.0 5854.0 5966.0 5828.0 5704.0 5864.0\n6828.0 5856.0 5964.0 5826.0 5710.0 5864.0\n6840.0 5862.0 5960.0 5820.0 5702.0 5864.0\n6834.0 5860.0 5960.0 5832.0 5700.0 5862.0\n6830.0 5868.0 5958.0 5824.0 5708.0 5862.0\n6834.0 5858.0 5950.0 5828.0 5706.0 5870.0\n6838.0 5864.0 5966.0 5834.0 5702.0 5876.0\n6834.0 5858.0 5958.0 5830.0 5710.0 5864.0\n6838.0 5856.0 5906.0 5764.0 5692.0 5868.0\n6834.0 5860.0 5962.0 5824.0 5708.0 5862.0\n6830.0 5860.0 5972.0 5832.0 5704.0 5868.0\n6836.0 5856.0 5964.0 5828.0 5700.0 5860.0\n6838.0 5858.0 5960.0 5822.0 5708.0 5866.0\n6830.0 5858.0 5962.0 5826.0 5706.0 5860.0\n6834.0 5860.0 5950.0 5828.0 5704.0 5860.0\n6836.0 5856.0 5958.0 5836.0 5708.0 5872.0\n6826.0 5858.0 5968.0 5828.0 5704.0 5862.0\n6830.0 5858.0 5966.0 5834.0 5710.0 5872.0\n6838.0 5852.0 5960.0 5830.0 5696.0 5860.0\n6836.0 5868.0 5962.0 5834.0 5704.0 5854.0\n6826.0 5860.0 5956.0 5828.0 5702.0 5880.0\n6836.0 5860.0 5962.0 5824.0 5704.0 5864.0\n6826.0 5862.0 5956.0 5836.0 5704.0 5864.0\n6828.0 5856.0 5972.0 5822.0 5702.0 5860.0\n6824.0 5852.0 5964.0 5824.0 5700.0 5868.0\n6832.0 5860.0 5960.0 5828.0 5648.0 5862.0\n6834.0 5862.0 5948.0 5822.0 5704.0 5860.0\n6834.0 5860.0 5960.0 5830.0 5708.0 5850.0\n6830.0 5852.0 5950.0 5830.0 5656.0 5860.0\n6832.0 5864.0 5960.0 5824.0 5706.0 5862.0\n6836.0 5860.0 5968.0 5826.0 5702.0 5866.0\n6830.0 5854.0 5964.0 5828.0 5706.0 5866.0\n6832.0 5858.0 5960.0 5842.0 5704.0 5864.0\n6832.0 5870.0 5958.0 5816.0 5694.0 5864.0\n6832.0 5856.0 5906.0 5816.0 5704.0 5864.0\n6826.0 5860.0 5956.0 5822.0 5704.0 5864.0\n6828.0 5866.0 5958.0 5814.0 5696.0 5866.0\n6836.0 5854.0 5956.0 5806.0 5706.0 5860.0\n6828.0 5862.0 5962.0 5810.0 5698.0 5870.0\n6830.0 5860.0 5964.0 5810.0 5702.0 5868.0\n6840.0 5858.0 5946.0 5820.0 5700.0 5870.0\n6828.0 5852.0 5952.0 5824.0 5704.0 5866.0\n6828.0 5866.0 5954.0 5820.0 5704.0 5870.0\n6820.0 5858.0 5958.0 5820.0 5698.0 5862.0\n6832.0 5856.0 5956.0 5816.0 5706.0 5864.0\n6834.0 5788.0 5956.0 5758.0 5702.0 5862.0\n6828.0 5856.0 5948.0 5822.0 5702.0 5874.0\n6830.0 5862.0 5964.0 5814.0 5704.0 5860.0\n6824.0 5848.0 5966.0 5812.0 5710.0 5860.0\n6818.0 5856.0 5962.0 5810.0 5698.0 5866.0\n6826.0 5858.0 5958.0 5762.0 5700.0 5876.0\n6826.0 5856.0 5958.0 5820.0 5712.0 5862.0\n6828.0 5854.0 5960.0 5758.0 5714.0 5860.0\n6832.0 5854.0 5962.0 5818.0 5702.0 5864.0\n6824.0 5854.0 5958.0 5822.0 5712.0 5854.0\n6840.0 5856.0 5894.0 5816.0 5700.0 5860.0\n6838.0 5852.0 5960.0 5814.0 5700.0 5862.0\n6828.0 5856.0 6000.0 5826.0 5706.0 5866.0\n6830.0 5804.0 5948.0 5810.0 5708.0 5868.0\n6830.0 5854.0 5960.0 5814.0 5708.0 5858.0\n6820.0 5810.0 5958.0 5774.0 5702.0 5874.0\n6824.0 5854.0 5962.0 5820.0 5704.0 5866.0\n