6882.0 5866.0 5984.0 5868.0 5704.0 5866.0\n6876.0 5872.0 5992.0 5860.0 5706.0 5868.0\n6876.0 5868.0 5988.0 5876.0 5722.0 5868.0\n6878.0 5878.0 5988.0 5860.0 5720.0 5872.0\n6880.0 5862.0 5988.0 5868.0 5708.0 5870.0\n6884.0 5866.0 5990.0 5860.0 5724.0 5864.0\n6878.0 5864.0 5990.0 5862.0 5716.0 5870.0\n6890.0 5870.0 5990.0 5822.0 5718.0 5874.0\n6836.0 5832.0 5984.0 5870.0 5720.0 5878.0\n6878.0 5880.0 5990.0 5870.0 5710.0 5876.0\n6880.0 5870.0 5982.0 5874.0 5712.0 5862.0\n6878.0 5872.0 5984.0 5870.0 5714.0 5868.0\n6884.0 5864.0 5986.0 5870.0 5712.0 5868.0\n6882.0 5870.0 5990.0 5870.0 5718.0 5868.0\n6880.0 5870.0 5986.0 5874.0 5714.0 5866.0\n6876.0 5870.0 5990.0 5866.0 5706.0 5870.0\n6878.0 5860.0 5980.0 5866.0 5716.0 5868.0\n6882.0 5870.0 5988.0 5870.0 5720.0 5866.0\n6880.0 5870.0 5986.0 5862.0 5714.0 5870.0\n6868.0 5862.0 5982.0 5864.0 5678.0 5838.0\n6886.0 5872.0 5978.0 5868.0 5714.0 5862.0\n6880.0 5868.0 5978.0 5856.0 5720.0 5874.0\n6888.0 5872.0 5992.0 5864.0 5706.0 5870.0\n6882.0 5868.0 5988.0 5868.0 5722.0 5876.0\n6886.0 5874.0 6000.0 5870.0 5704.0 5874.0\n6890.0 5878.0 5998.0 5868.0 5722.0 5868.0\n6836.0 5872.0 5952.0 5880.0 5714.0 5868.0\n6890.0 5876.0 6002.0 5882.0 5722.0 5866.0\n6904.0 5870.0 6000.0 5874.0 5728.0 5868.0\n6964.0 5846.0 5998.0 5882.0 5732.0 5864.0\n6956.0 5878.0 6008.0 5890.0 5734.0 5866.0\n6990.0 5880.0 6018.0 5892.0 5748.0 5876.0\n6998.0 5882.0 6018.0 5902.0 5754.0 5884.0\n6970.0 5878.0 6026.0 5868.0 5764.0 5886.0\n7040.0 5894.0 6044.0 5924.0 5780.0 5878.0\n7064.0 5888.0 6042.0 5984.0 5808.0 5878.0\n7092.0 5890.0 6060.0 6012.0 5836.0 5886.0\n7142.0 5902.0 6094.0 6106.0 5904.0 5884.0\n7200.0 5876.0 6100.0 6174.0 5956.0 5886.0\n7166.0 5920.0 6126.0 6224.0 6038.0 5868.0\n7248.0 5916.0 6154.0 6258.0 6078.0 5882.0\n7280.0 5920.0 6160.0 6286.0 6140.0 5894.0\n7308.0 5932.0 6164.0 6302.0 6198.0 5894.0\n7332.0 5944.0 6174.0 6292.0 6286.0 5882.0\n7346.0 5948.0 6182.0 6286.0 6264.0 5888.0\n7344.0 5944.0 6188.0 6290.0 6322.0 5892.0\n7340.0 5954.0 6192.0 6290.0 6310.0 5882.0\n7342.0 5954.0 6172.0 6388.0 6322.0 5886.0\n7292.0 5924.0 6184.0 6302.0 6324.0 5890.0\n7338.0 5942.0 6170.0 6286.0 6312.0 5882.0\n7334.0 5946.0 6184.0 6282.0 6302.0 5884.0\n7324.0 5942.0 6130.0 6292.0 6280.0 5892.0\n7316.0 5916.0 6164.0 6290.0 6252.0 5876.0\n7316.0 5926.0 6164.0 6288.0 6218.0 5888.0\n7272.0 5922.0 6160.0 6280.0 6198.0 5854.0\n7304.0 5922.0 6152.0 6274.0 6120.0 5882.0\n7284.0 5884.0 6140.0 6278.0 6082.0 5886.0\n7260.0 5896.0 6132.0 6268.0 6082.0 5882.0\n7254.0 5916.0 6116.0 6260.0 6036.0 5878.0\n7244.0 5924.0 6112.0 6210.0 6020.0 5882.0\n7254.0 5864.0 6118.0 6202.0 5974.0 5878.0\n7240.0 5906.0 6114.0 6182.0 5950.0 5876.0\n7236.0 5894.0 6108.0 6174.0 5910.0 5868.0\n7236.0 5896.0 6090.0 6140.0 5886.0 5876.0\n7220.0 5896.0 6084.0 6126.0 5864.0 5882.0\n7204.0 5890.0 6068.0 6092.0 5820.0 5872.0\n7162.0 5882.0 6070.0 6088.0 5818.0 5872.0\n7154.0 5882.0 6064.0 6062.0 5796.0 5864.0\n7148.0 5886.0 6056.0 6046.0 5776.0 5876.0\n7146.0 5888.0 6056.0 6036.0 5774.0 5882.0\n7134.0 5878.0 6038.0 6016.0 5732.0 5866.0\n7132.0 5874.0 6040.0 6000.0 5758.0 5870.0\n7132.0 5874.0 6034.0 5986.0 5766.0 5868.0\n7092.0 5880.0 6034.0 5966.0 5756.0 5870.0\n7082.0 5870.0 6026.0 5956.0 5750.0 5864.0\n7074.0 5874.0 6020.0 5952.0 5744.0 5870.0\n7038.0 5882.0 6012.0 5936.0 5742.0 5816.0\n7054.0 5878.0 6014.0 5926.0 5736.0 5874.0\n7048.0 5880.0 6016.0 5912.0 5732.0 5870.0\n7038.0 5880.0 5970.0 5862.0 5732.0 5868.0\n7040.0 5880.0 6000.0 5894.0 5724.0 5864.0\n7030.0 5878.0 6002.0 5886.0 5734.0 5868.0\n7034.0 5876.0 5996.0 5894.0 5728.0 5860.0\n6992.0 5954.0 6002.0 5888.0 5732.0 5864.0\n6934.0 5886.0 6004.0 5894.0 5724.0 5864.0\n6982.0 5870.0 6004.0 5884.0 5728.0 5874.0\n6974.0 5876.0 6002.0 5892.0 5722.0 5866.0\n6984.0 5874.0 5998.0 5894.0 5730.0 5858.0\n6986.0 5870.0 5996.0 5876.0 5724.0 5868.0\n6936.0 5866.0 5994.0 5886.0 5716.0 5870.0\n6968.0 5876.0 5990.0 5886.0 5734.0 5864.0\n6970.0 5868.0 5996.0 5894.0 5712.0 5866.0\n6974.0 5866.0 5992.0 5878.0 5712.0 5866.0\n6970.0 5868.0 5992.0 5894.0 5728.0 5866.0\n6964.0 5864.0 5954.0 5878.0 5714.0 5870.0\n6966.0 5870.0 6002.0 5862.0 5724.0 5860.0\n6974.0 5882.0 5998.0 5858.0 5676.0 5824.0\n6970.0 5870.0 5994.0 5864.0 5716.0 5866.0\n6968.0 5864.0 6000.0 5876.0 5730.0 5874.0\n6968.0 5868.0 5994.0 5870.0 5722.0 5868.0\n6968.0 5868.0 5982.0 5868.0 5726.0 5868.0\n6968.0 5880.0 5996.0 5870.0 5720.0 5878.0\n6968.0 5878.0 5988.0 5876.0 5718.0 5862.0\n6958.0 5884.0 5994.0 5880.0 5722.0 5862.0\n6966.0 5876.0 5942.0 5834.0 5716.0 5872.0\n6964.0 5880.0 6002.0 5864.0 5718.0 5868.0\n6962.0 5874.0 5992.0 5868.0 5718.0 5866.0\n6960.0 5872.0 5990.0 5878.0 5718.0 5854.0\n6958.0 5868.0 5988.0 5874.0 5716.0 5864.0\n6922.0 5848.0 5988.0 5874.0 5722.0 5866.0\n6910.0 5884.0 5984.0 5876.0 5720.0 5884.0\n6954.0 5872.0 5984.0 5862.0 5724.0 5876.0\n6956.0 5876.0 5992.0 5868.0 5716.0 5866.0\n6952.0 5868.0 5990.0 5876.0 5718.0 5866.0\n6906.0 5886.0 5994.0 5862.0 5716.0 5860.0\n6914.0 5870.0 5994.0 5872.0 5712.0 5876.0\n6908.0 5870.0 5996.0 5870.0 5716.0 5862.0\n6912.0 5876.0 5998.0 5868.0 5720.0 5860.0\n6910.0 5876.0 5954.0 5822.0 5718.0 5862.0\n6910.0 5876.0 5986.0 5864.0 5714.0 5866.0\n6910.0 5872.0 5984.0 5878.0 5716.0 5864.0\n6906.0 5872.0 5982.0 5868.0 5718.0 5862.0\n6906.0 5884.0 5984.0 5866.0 5722.0 5868.0\n6906.0 5868.0 5986.0 5878.0 5716.0 5872.0\n6902.0 5874.0 5990.0 5876.0 5710.0 5862.0\n6918.0 5874.0 5998.0 5862.0 5708.0 5872.0\n6920.0 5868.0 5982.0 5856.0 5720.0 5870.0\n6916.0 5866.0 5990.0 5866.0 5710.0 5856.0\n6906.0 5872.0 5982.0 5864.0 5718.0 5858.0\n6910.0 5866.0 5996.0 5870.0 5728.0 5860.0\n6908.0 5866.0 5996.0 5874.0 5712.0 5874.0\n6900.0 5876.0 5984.0 5874.0 5714.0 5868.0\n6900.0 5870.0 5990.0 5868.0 5720.0 5876.0\n6904.0 5876.0 6006.0 5864.0 5710.0 5868.0\n6904.0 5862.0 5996.0 5860.0 5708.0 5872.0\n6910.0 5868.0 5984.0 5872.0 5724.0 5864.0\n6898.0 5872.0 5994.0 5866.0 5714.0 5872.0\n6916.0 5834.0 5980.0 5878.0 5706.0 5870.0\n6908.0 5882.0 5990.0 5832.0 5714.0 5868.0\n6850.0 5872.0 5986.0 5866.0 5708.0 5882.0\n6904.0 5882.0 5994.0 5878.0 5724.0 5864.0\n6902.0 5872.0 5992.0 5870.0 5716.0 5864.0\n6904.0 5868.0 5992.0 5866.0 5684.0 5866.0\n6904.0 5884.0 5982.0 5830.0 5712.0 5864.0\n6914.0 5874.0 5994.0 5854.0 5712.0 5864.0\n6904.0 5876.0 5994.0 5866.0 5718.0 5870.0\n6910.0 5874.0 5982.0 5866.0 5722.0 5868.0\n6900.0 5872.0 5984.0 5880.0 5718.0 5862.0\n6908.0 5868.0 5996.0 5876.0 5684.0 5876.0\n6896.0 5876.0 5984.0 5874.0 5722.0 5858.0\n6916.0 5868.0 5994.0 5868.0 5710.0 5874.0\n6852.0 5866.0 6000.0 5872.0 5722.0 5870.0\n6904.0 5878.0 5994.0 5868.0 5710.0 5864.0\n6904.0 5870.0 5990.0 5878.0 5712.0 5872.0\n6908.0 5870.0 5994.0 5868.0 5720.0 5874.0\n6910.0 5830.0 5994.0 5870.0 5718.0 5856.0\n6864.0 5868.0 5988.0 5868.0 5716.0 5872.0\n6900.0 5870.0 6002.0 5856.0 5722.0 5864.0\n6894.0 5880.0 5948.0 5882.0 5712.0 5862.0\n6904.0 5838.0 5996.0 5854.0 5712.0 5870.0\n6858.0 5876.0 5994.0 5868.0 5724.0 5828.0\n6906.0 5864.0 5994.0 5866.0 5710.0 5860.0\n6908.0 5820.0 5990.0 5872.0 5720.0 5868.0\n6904.0 5862.0 5992.0 5872.0 5724.0 5870.0\n6854.0 5876.0 5944.0 5868.0 5712.0 5826.0\n6906.0 5870.0 5994.0 5872.0 5712.0 5862.0\n6898.0 5844.0 6002.0 5828.0 5722.0 5870.0\n6902.0 5874.0 5992.0 5872.0 5710.0 5874.0\n6902.0 5866.0 5984.0 5872.0 5716.0 5864.0\n6902.0 5866.0 5984.0 5868.0 5722.0 5868.0\n6904.0 5874.0 5986.0 5868.0 5720.0 5858.0\n6910.0 5872.0 5990.0 5848.0 5718.0 5868.0\n6900.0 5864.0 5994.0 5868.0 5720.0 5868.0\n6908.0 5868.0 5990.0 5868.0 5714.0 5874.0\n6902.0 5828.0 5996.0 5870.0 5710.0 5872.0\n6904.0 5872.0 5988.0 5862.0 5710.0 5872.0\n6898.0 5874.0 5992.0 5868.0 5720.0 5870.0\n6898.0 5870.0 5990.0 5864.0 5716.0 5872.0\n6906.0 5868.0 5994.0 5864.0 5710.0 5860.0\n6900.0 5874.0 5990.0 5866.0 5716.0 5874.0\n6900.0 5864.0 5986.0 5866.0 5720.0 5864.0\n6892.0 5864.0 5984.0 5862.0 5712.0 5864.0\n6902.0 5868.0 5992.0 5866.0 5716.0 5872.0\n6888.0 5876.0 6000.0 5856.0 5722.0 5862.0\n6906.0 5866.0 5990.0 5866.0 5716.0 5868.0\n6902.0 5874.0 5988.0 5868.0 5716.0 5870.0\n6848.0 5864.0 5988.0 5836.0 5716.0 5818.0\n6902.0 5870.0 5986.0 5862.0 5710.0 5872.0\n6902.0 5870.0 5988.0 5876.0 5720.0 5862.0\n6908.0 5870.0 5988.0 5868.0 5722.0 5872.0\n6898.0 5868.0 5988.0 5868.0 5716.0 5866.0\n6900.0 5868.0 5966.0 5864.0 5720.0 5866.0\n6902.0 5870.0 5984.0 5860.0 5712.0 5872.0\n6900.0 5868.0 5986.0 5860.0 5716.0 5860.0\n6898.0 5862.0 5990.0 5864.0 5720.0 5868.0\n6902.0 5870.0 5990.0 5874.0 5716.0 5858.0\n6902.0 5864.0 5986.0 5872.0 5718.0 5866.0\n6904.0 5872.0 5984.0 5834.0 5712.0 5876.0\n6918.0 5832.0 5986.0 5864.0 5720.0 5868.0\n6904.0 5866.0 5994.0 5870.0 5674.0 5872.0\n6898.0 5868.0 5990.0 5874.0 5716.0 5864.0\n6904.0 5866.0 5984.0 5866.0 5712.0 5866.0\n6908.0 5834.0 5982.0 5864.0 5712.0 5870.0\n6860.0 5838.0 5986.0 5856.0 5724.0 5866.0\n6892.0 5868.0 5988.0 5868.0 5718.0 5870.0\n6894.0 5872.0 5984.0 5870.0 5710.0 5864.0\n6904.0 5874.0 5986.0 5834.0 5712.0 5874.0\n6898.0 5864.0 5998.0 5864.0 5708.0 5868.0\n6854.0 5818.0 5998.0 5864.0 5716.0 5866.0\n6896.0 5864.0 5988.0 5868.0 5716.0 5872.0\n6904.0 5870.0 5984.0 5872.0 5710.0 5864.0\n6854.0 5864.0 5988.0 5870.0 5710.0 5870.0\n6848.0 5836.0 5984.0 5868.0 5718.0 5866.0\n6902.0 5868.0 5988.0 5868.0 5714.0 5862.0\n6910.0 5870.0 5994.0 5862.0 5718.0 5872.0\n6904.0 5814.0 5990.0 5826.0 5668.0 5868.0\n6908.0 5864.0 5996.0 5860.0 5714.0 5864.0\n6908.0 5878.0 5990.0 5866.0 5720.0 5860.0\n6906.0 5872.0 5992.0 5868.0 5714.0 5866.0\n6910.0 5872.0 5950.0 5822.0 5704.0 5860.0\n6854.0 5874.0 5990.0 5878.0 5714.0 5874.0\n6896.0 5870.0 5988.0 5876.0 5680.0 5830.0\n6908.0 5866.0 5990.0 5868.0 5718.0 5868.0\n6852.0 5852.0 5992.0 5866.0 5718.0 5866.0\n6908.0 5832.0 5980.0 5830.0 5716.0 5864.0\n6910.0 5862.0 5994.0 5870.0 5718.0 5868.0\n6856.0 5866.0 5996.0 5872.0 5718.0 5870.0\n6906.0 5876.0 5982.0 5866.0 5718.0 5880.0\n6904.0 5868.0 5988.0 5854.0 5714.0 5868.0\n6908.0 5874.0 5958.0 5830.0 5714.0 5874.0\n6906.0 5876.0 5994.0 5870.0 5716.0 5874.0\n6896.0 5868.0 5992.0 5854.0 5702.0 5862.0\n6894.0 5860.0 5946.0 5874.0 5714.0 5822.0\n6902.0 5868.0 5980.0 5866.0 5682.0 5868.0\n