6874.0 5864.0 5982.0 5856.0 5718.0 5868.0\n6878.0 5874.0 5980.0 5862.0 5710.0 5866.0\n6848.0 5870.0 5974.0 5864.0 5718.0 5872.0\n6886.0 5872.0 5978.0 5860.0 5724.0 5868.0\n6880.0 5874.0 5986.0 5858.0 5710.0 5870.0\n6878.0 5860.0 5988.0 5870.0 5718.0 5870.0\n6880.0 5866.0 5974.0 5864.0 5714.0 5868.0\n6884.0 5876.0 5982.0 5860.0 5706.0 5864.0\n6882.0 5824.0 5992.0 5824.0 5706.0 5874.0\n6872.0 5868.0 5974.0 5868.0 5702.0 5868.0\n6880.0 5866.0 5984.0 5866.0 5712.0 5866.0\n6878.0 5870.0 5978.0 5868.0 5716.0 5868.0\n6874.0 5866.0 5986.0 5862.0 5714.0 5874.0\n6886.0 5878.0 5982.0 5862.0 5712.0 5864.0\n6878.0 5876.0 5988.0 5868.0 5706.0 5868.0\n6876.0 5868.0 5988.0 5862.0 5672.0 5874.0\n6876.0 5872.0 5986.0 5860.0 5712.0 5868.0\n6882.0 5880.0 5982.0 5866.0 5718.0 5874.0\n6882.0 5870.0 5980.0 5874.0 5708.0 5864.0\n6876.0 5868.0 5984.0 5862.0 5712.0 5862.0\n6884.0 5868.0 5974.0 5876.0 5716.0 5870.0\n6884.0 5868.0 5982.0 5924.0 5720.0 5862.0\n6878.0 5868.0 5982.0 5872.0 5678.0 5866.0\n6870.0 5866.0 5986.0 5866.0 5714.0 5864.0\n6880.0 5874.0 5988.0 5874.0 5724.0 5872.0\n6890.0 5866.0 5984.0 5862.0 5714.0 5868.0\n6884.0 5874.0 5992.0 5860.0 5674.0 5876.0\n6886.0 5866.0 5988.0 5876.0 5720.0 5872.0\n6886.0 5868.0 5978.0 5866.0 5718.0 5874.0\n6900.0 5876.0 6002.0 5880.0 5720.0 5872.0\n6908.0 5878.0 5996.0 5884.0 5724.0 5876.0\n6864.0 5876.0 5998.0 5874.0 5726.0 5878.0\n6946.0 5880.0 5998.0 5882.0 5736.0 5880.0\n6972.0 5882.0 6006.0 5892.0 5728.0 5876.0\n6970.0 5884.0 6022.0 5886.0 5752.0 5872.0\n7002.0 5876.0 6028.0 5908.0 5762.0 5878.0\n7014.0 5892.0 5994.0 5886.0 5772.0 5870.0\n7050.0 5894.0 6056.0 5980.0 5792.0 5882.0\n7074.0 5874.0 6062.0 6010.0 5810.0 5886.0\n7108.0 5904.0 6078.0 6082.0 5868.0 5884.0\n7136.0 5896.0 6094.0 6114.0 5912.0 5880.0\n7186.0 5908.0 6120.0 6192.0 5976.0 5876.0\n7226.0 5912.0 6140.0 6228.0 6040.0 5878.0\n7276.0 5914.0 6152.0 6272.0 6102.0 5888.0\n7294.0 5914.0 6170.0 6298.0 6168.0 5874.0\n7316.0 5930.0 6184.0 6296.0 6254.0 5878.0\n7332.0 5932.0 6196.0 6300.0 6268.0 5882.0\n7334.0 5932.0 6182.0 6298.0 6290.0 5892.0\n7322.0 5938.0 6174.0 6292.0 6290.0 5884.0\n7322.0 5942.0 6196.0 6296.0 6300.0 5884.0\n7316.0 5948.0 6198.0 6290.0 6298.0 5886.0\n7316.0 5936.0 6200.0 6288.0 6270.0 5878.0\n7310.0 5940.0 6192.0 6296.0 6248.0 5884.0\n7314.0 5934.0 6188.0 6282.0 6232.0 5892.0\n7306.0 5932.0 6174.0 6292.0 6210.0 5890.0\n7306.0 5934.0 6170.0 6272.0 6114.0 5886.0\n7308.0 5930.0 6174.0 6286.0 6140.0 5886.0\n7276.0 5924.0 6174.0 6266.0 6066.0 5882.0\n7244.0 5916.0 6158.0 6268.0 6044.0 5878.0\n7238.0 5908.0 6168.0 6274.0 6014.0 5884.0\n7166.0 5908.0 6148.0 6254.0 5956.0 5878.0\n7196.0 5902.0 6134.0 6250.0 5930.0 5886.0\n7194.0 5906.0 6130.0 6192.0 5896.0 5882.0\n7188.0 5902.0 6112.0 6174.0 5862.0 5888.0\n7188.0 5896.0 6108.0 6152.0 5850.0 5882.0\n7188.0 5900.0 6108.0 6116.0 5830.0 5878.0\n7182.0 5890.0 6086.0 6110.0 5816.0 5878.0\n7180.0 5882.0 6086.0 6102.0 5816.0 5882.0\n7182.0 5898.0 6080.0 6088.0 5800.0 5878.0\n7158.0 5888.0 6070.0 6056.0 5782.0 5874.0\n7176.0 5876.0 6070.0 6060.0 5776.0 5872.0\n7154.0 5880.0 6058.0 6032.0 5774.0 5878.0\n7150.0 5882.0 6062.0 6024.0 5762.0 5870.0\n7134.0 5880.0 6054.0 6004.0 5752.0 5870.0\n7132.0 5880.0 6012.0 5946.0 5760.0 5872.0\n7096.0 5878.0 6052.0 5926.0 5754.0 5870.0\n7084.0 5826.0 6036.0 5966.0 5756.0 5868.0\n7062.0 5884.0 6034.0 5956.0 5748.0 5822.0\n7054.0 5874.0 6024.0 5938.0 5746.0 5864.0\n7042.0 5886.0 6028.0 5940.0 5734.0 5876.0\n7038.0 5884.0 6024.0 5920.0 5728.0 5868.0\n7040.0 5882.0 6018.0 5900.0 5732.0 5874.0\n7036.0 5874.0 6012.0 5902.0 5724.0 5856.0\n7036.0 5884.0 6000.0 5902.0 5732.0 5862.0\n6976.0 5830.0 6010.0 5896.0 5732.0 5862.0\n6990.0 5886.0 5954.0 5900.0 5728.0 5870.0\n6974.0 5888.0 6000.0 5908.0 5726.0 5864.0\n6956.0 5884.0 5954.0 5858.0 5726.0 5866.0\n6952.0 5876.0 6000.0 5900.0 5726.0 5870.0\n6932.0 5882.0 6006.0 5906.0 5734.0 5872.0\n6912.0 5882.0 6002.0 5900.0 5718.0 5866.0\n6926.0 5880.0 6010.0 5900.0 5722.0 5868.0\n6910.0 5876.0 6008.0 5900.0 5724.0 5872.0\n6852.0 5844.0 5992.0 5906.0 5726.0 5866.0\n6914.0 5878.0 6002.0 5898.0 5722.0 5866.0\n6914.0 5876.0 5994.0 5898.0 5720.0 5870.0\n6912.0 5878.0 6004.0 5890.0 5718.0 5864.0\n6910.0 5888.0 5998.0 5904.0 5726.0 5866.0\n6912.0 5888.0 6002.0 5894.0 5672.0 5828.0\n6908.0 5874.0 6004.0 5854.0 5722.0 5866.0\n6916.0 5880.0 6000.0 5894.0 5728.0 5866.0\n6904.0 5886.0 6008.0 5894.0 5720.0 5870.0\n6908.0 5886.0 6010.0 5900.0 5720.0 5870.0\n6910.0 5872.0 5998.0 5838.0 5726.0 5872.0\n6852.0 5852.0 6006.0 5904.0 5720.0 5876.0\n6910.0 5884.0 5998.0 5892.0 5722.0 5868.0\n6904.0 5838.0 5998.0 5900.0 5736.0 5866.0\n6908.0 5892.0 6004.0 5902.0 5722.0 5870.0\n6908.0 5876.0 5998.0 5860.0 5718.0 5870.0\n6908.0 5886.0 5998.0 5894.0 5712.0 5868.0\n6914.0 5884.0 6002.0 5894.0 5720.0 5880.0\n6858.0 5862.0 6002.0 5896.0 5730.0 5870.0\n6906.0 5838.0 6000.0 5898.0 5716.0 5856.0\n6898.0 5876.0 5994.0 5906.0 5726.0 5862.0\n6904.0 5892.0 6002.0 5898.0 5722.0 5868.0\n6910.0 5880.0 6002.0 5856.0 5718.0 5864.0\n6908.0 5878.0 5954.0 5892.0 5724.0 5864.0\n6900.0 5880.0 5984.0 5906.0 5722.0 5870.0\n6904.0 5892.0 6002.0 5898.0 5678.0 5870.0\n6902.0 5878.0 5996.0 5898.0 5684.0 5824.0\n6902.0 5876.0 5988.0 5896.0 5718.0 5872.0\n6902.0 5894.0 5994.0 5896.0 5724.0 5870.0\n6902.0 5878.0 5988.0 5890.0 5722.0 5866.0\n6902.0 5878.0 5988.0 5898.0 5728.0 5876.0\n6902.0 5882.0 6002.0 5848.0 5712.0 5866.0\n6902.0 5892.0 5992.0 5892.0 5720.0 5868.0\n6902.0 5882.0 6008.0 5898.0 5720.0 5868.0\n6910.0 5878.0 6000.0 5894.0 5720.0 5874.0\n6902.0 5884.0 6006.0 5894.0 5662.0 5866.0\n6906.0 5876.0 5998.0 5904.0 5718.0 5860.0\n6904.0 5882.0 5996.0 5890.0 5694.0 5876.0\n6906.0 5884.0 6006.0 5894.0 5726.0 5868.0\n6898.0 5888.0 5998.0 5906.0 5724.0 5874.0\n6848.0 5894.0 6012.0 5890.0 5720.0 5826.0\n6866.0 5886.0 6002.0 5884.0 5684.0 5874.0\n6904.0 5878.0 6000.0 5852.0 5724.0 5856.0\n6910.0 5880.0 6000.0 5898.0 5726.0 5882.0\n6892.0 5892.0 6004.0 5882.0 5682.0 5868.0\n6896.0 5886.0 6004.0 5900.0 5724.0 5878.0\n6900.0 5884.0 6004.0 5894.0 5712.0 5870.0\n6894.0 5888.0 6004.0 5904.0 5724.0 5876.0\n6898.0 5880.0 6004.0 5890.0 5726.0 5878.0\n6900.0 5884.0 6006.0 5900.0 5710.0 5872.0\n6916.0 5882.0 6000.0 5898.0 5724.0 5878.0\n6900.0 5884.0 6006.0 5902.0 5722.0 5870.0\n6902.0 5884.0 6006.0 5892.0 5716.0 5874.0\n6898.0 5884.0 5996.0 5900.0 5720.0 5876.0\n6900.0 5844.0 5998.0 5902.0 5722.0 5860.0\n6846.0 5886.0 6008.0 5906.0 5710.0 5830.0\n6862.0 5878.0 5998.0 5896.0 5720.0 5820.0\n6854.0 5884.0 5992.0 5898.0 5724.0 5820.0\n6846.0 5886.0 6000.0 5890.0 5732.0 5874.0\n6898.0 5880.0 6000.0 5898.0 5726.0 5870.0\n6892.0 5878.0 6000.0 5896.0 5718.0 5870.0\n6900.0 5880.0 5998.0 5910.0 5722.0 5872.0\n6890.0 5866.0 5998.0 5894.0 5718.0 5866.0\n6906.0 5886.0 5998.0 5896.0 5724.0 5874.0\n6838.0 5882.0 6002.0 5894.0 5724.0 5876.0\n6888.0 5874.0 5994.0 5900.0 5674.0 5868.0\n6900.0 5886.0 6008.0 5892.0 5720.0 5870.0\n6890.0 5874.0 5994.0 5900.0 5722.0 5862.0\n6900.0 5888.0 6008.0 5904.0 5726.0 5872.0\n6898.0 5882.0 6006.0 5896.0 5722.0 5838.0\n6896.0 5884.0 5998.0 5900.0 5724.0 5864.0\n6898.0 5884.0 6002.0 5894.0 5716.0 5876.0\n6896.0 5892.0 6004.0 5898.0 5724.0 5862.0\n6900.0 5878.0 6002.0 5900.0 5674.0 5860.0\n6890.0 5882.0 5996.0 5908.0 5720.0 5870.0\n6896.0 5874.0 6000.0 5900.0 5718.0 5872.0\n6900.0 5878.0 5992.0 5896.0 5720.0 5872.0\n6898.0 5878.0 5992.0 5900.0 5714.0 5870.0\n6896.0 5886.0 5998.0 5898.0 5714.0 5866.0\n6896.0 5876.0 6002.0 5894.0 5726.0 5868.0\n6894.0 5882.0 5994.0 5904.0 5680.0 5822.0\n6888.0 5878.0 5994.0 5890.0 5722.0 5868.0\n6886.0 5886.0 6002.0 5892.0 5720.0 5868.0\n6894.0 5886.0 5998.0 5900.0 5730.0 5874.0\n6900.0 5884.0 5990.0 5900.0 5716.0 5870.0\n6894.0 5878.0 5998.0 5898.0 5716.0 5868.0\n6898.0 5892.0 5994.0 5900.0 5716.0 5872.0\n6894.0 5874.0 5994.0 5900.0 5720.0 5872.0\n6884.0 5890.0 6008.0 5886.0 5726.0 5880.0\n6900.0 5870.0 6000.0 5898.0 5724.0 5874.0\n6838.0 5846.0 5994.0 5900.0 5726.0 5870.0\n6898.0 5880.0 6000.0 5894.0 5724.0 5872.0\n6900.0 5874.0 6002.0 5900.0 5726.0 5862.0\n6844.0 5892.0 5996.0 5900.0 5714.0 5876.0\n6900.0 5876.0 5954.0 5850.0 5676.0 5874.0\n6898.0 5836.0 5994.0 5898.0 5716.0 5866.0\n6898.0 5882.0 6000.0 5886.0 5720.0 5874.0\n6894.0 5878.0 6006.0 5898.0 5718.0 5874.0\n6902.0 5848.0 6002.0 5904.0 5720.0 5864.0\n6890.0 5878.0 6006.0 5896.0 5716.0 5868.0\n6886.0 5886.0 6002.0 5894.0 5714.0 5872.0\n6886.0 5880.0 6000.0 5898.0 5722.0 5874.0\n6846.0 5880.0 5998.0 5890.0 5710.0 5892.0\n6886.0 5874.0 6002.0 5902.0 5718.0 5874.0\n6890.0 5892.0 5998.0 5848.0 5710.0 5874.0\n6898.0 5880.0 6004.0 5902.0 5726.0 5874.0\n6892.0 5878.0 6004.0 5906.0 5718.0 5870.0\n6900.0 5882.0 6000.0 5900.0 5720.0 5868.0\n6892.0 5848.0 5996.0 5898.0 5722.0 5876.0\n6894.0 5878.0 5994.0 5894.0 5720.0 5866.0\n6902.0 5880.0 5998.0 5904.0 5718.0 5872.0\n6898.0 5892.0 6004.0 5898.0 5724.0 5870.0\n6894.0 5880.0 5996.0 5890.0 5724.0 5864.0\n6896.0 5878.0 6004.0 5902.0 5714.0 5874.0\n6894.0 5880.0 5998.0 5894.0 5724.0 5870.0\n6886.0 5884.0 6000.0 5896.0 5714.0 5868.0\n6888.0 5852.0 5998.0 5896.0 5712.0 5866.0\n6890.0 5876.0 5996.0 5888.0 5666.0 5826.0\n6892.0 5874.0 5992.0 5894.0 5714.0 5862.0\n6888.0 5878.0 5946.0 5890.0 5718.0 5870.0\n6936.0 5878.0 6006.0 5896.0 5678.0 5814.0\n6890.0 5872.0 6002.0 5888.0 5718.0 5870.0\n6896.0 5880.0 5998.0 5900.0 5712.0 5872.0\n6892.0 5886.0 5988.0 5894.0 5720.0 5870.0\n6888.0 5884.0 5988.0 5894.0 5718.0 5864.0\n6896.0 5884.0 5992.0 5894.0 5718.0 5870.0\n6892.0 5870.0 5992.0 5898.0 5716.0 5870.0\n6898.0 5880.0 5996.0 5900.0 5714.0 5868.0\n6890.0 5842.0 6004.0 5892.0 5716.0 5872.0\n6892.0 5890.0 5996.0 5894.0 5724.0 5870.0\n6888.0 5882.0 6002.0 5894.0 5716.0 5862.0\n6890.0 5874.0 6000.0 5904.0 5718.0 5874.0\n6888.0 5876.0 6002.0 5890.0 5720.0 5872.0\n6892.0 5878.0 6002.0 5894.0 5714.0 5868.0\n6894.0 5878.0 6004.0 5892.0 5718.0 5866.0\n6888.0 5886.0 6000.0 5894.0 5686.0 5862.0\n6892.0 5852.0 6000.0 5858.0 5724.0 5874.0\n6846.0 5878.0 5996.0 5898.0 5720.0 5872.0\n6894.0 5880.0 6000.0 5900.0 5714.0 5866.0\n6894.0 5880.0 6000.0 5896.0 5674.0 5872.0\n6846.0 5838.0 5994.0 5898.0 5716.0 5868.0\n6898.0 5880.0 5988.0 5896.0 5702.0 5864.0\n