6806.0 5876.0 5934.0 5790.0 5708.0 5868.0\n6806.0 5876.0 5932.0 5796.0 5706.0 5854.0\n6804.0 5874.0 5940.0 5802.0 5704.0 5866.0\n6806.0 5874.0 5946.0 5798.0 5708.0 5858.0\n6802.0 5868.0 5934.0 5786.0 5700.0 5866.0\n6804.0 5868.0 5934.0 5794.0 5702.0 5866.0\n6808.0 5878.0 5932.0 5800.0 5694.0 5866.0\n6812.0 5884.0 5936.0 5802.0 5698.0 5874.0\n6798.0 5870.0 5940.0 5800.0 5710.0 5870.0\n6810.0 5872.0 5938.0 5794.0 5708.0 5870.0\n6804.0 5872.0 5942.0 5790.0 5708.0 5862.0\n6806.0 5864.0 5942.0 5800.0 5690.0 5868.0\n6806.0 5866.0 5932.0 5790.0 5706.0 5866.0\n6802.0 5866.0 5936.0 5800.0 5704.0 5870.0\n6810.0 5876.0 5942.0 5802.0 5702.0 5876.0\n6812.0 5866.0 5946.0 5798.0 5696.0 5864.0\n6804.0 5874.0 5936.0 5804.0 5698.0 5862.0\n6808.0 5870.0 5938.0 5798.0 5702.0 5862.0\n6808.0 5870.0 5942.0 5800.0 5702.0 5862.0\n6810.0 5868.0 5936.0 5796.0 5710.0 5866.0\n6812.0 5866.0 5940.0 5800.0 5708.0 5868.0\n6802.0 5876.0 5940.0 5804.0 5704.0 5864.0\n6804.0 5870.0 5940.0 5796.0 5698.0 5868.0\n6814.0 5864.0 5936.0 5802.0 5702.0 5864.0\n6808.0 5870.0 5944.0 5780.0 5698.0 5862.0\n6818.0 5878.0 5928.0 5792.0 5702.0 5874.0\n6804.0 5872.0 5944.0 5798.0 5702.0 5870.0\n6794.0 5866.0 5946.0 5804.0 5698.0 5866.0\n6806.0 5874.0 5940.0 5802.0 5708.0 5866.0\n6810.0 5856.0 5942.0 5794.0 5706.0 5864.0\n6796.0 5868.0 5940.0 5794.0 5696.0 5870.0\n6808.0 5870.0 5938.0 5796.0 5704.0 5878.0\n6808.0 5872.0 5934.0 5800.0 5702.0 5868.0\n6802.0 5874.0 5946.0 5804.0 5702.0 5870.0\n6814.0 5874.0 5946.0 5798.0 5700.0 5870.0\n6818.0 5862.0 5948.0 5808.0 5698.0 5870.0\n6842.0 5856.0 5942.0 5806.0 5698.0 5864.0\n6808.0 5870.0 5948.0 5806.0 5712.0 5866.0\n6836.0 5854.0 5942.0 5802.0 5706.0 5866.0\n6842.0 5878.0 5956.0 5798.0 5716.0 5862.0\n6870.0 5882.0 5958.0 5806.0 5720.0 5862.0\n6882.0 5868.0 5962.0 5820.0 5728.0 5868.0\n6916.0 5878.0 5968.0 5800.0 5728.0 5870.0\n6924.0 5890.0 5974.0 5820.0 5750.0 5872.0\n7034.0 5892.0 5978.0 5858.0 5772.0 5872.0\n6970.0 5892.0 5986.0 5864.0 5780.0 5868.0\n6996.0 5882.0 5994.0 5900.0 5810.0 5876.0\n7010.0 5896.0 6010.0 5918.0 5840.0 5890.0\n7044.0 5896.0 6028.0 5964.0 5884.0 5890.0\n7080.0 5896.0 6042.0 5994.0 5924.0 5886.0\n7118.0 5898.0 6048.0 6024.0 5986.0 5878.0\n7200.0 5908.0 6060.0 6088.0 6084.0 5884.0\n7210.0 5920.0 6072.0 6086.0 6124.0 5886.0\n7256.0 5928.0 6082.0 6086.0 6188.0 5876.0\n7278.0 5924.0 6086.0 6092.0 6212.0 5876.0\n7304.0 5934.0 6084.0 6090.0 6262.0 5878.0\n7316.0 5934.0 6104.0 6094.0 6294.0 5884.0\n7312.0 5932.0 6100.0 6098.0 6312.0 5882.0\n7320.0 5940.0 6104.0 6094.0 6336.0 5880.0\n7310.0 5932.0 6110.0 6134.0 6330.0 5876.0\n7314.0 5930.0 6102.0 6132.0 6344.0 5880.0\n7314.0 5934.0 6106.0 6136.0 6320.0 5878.0\n7306.0 5928.0 6102.0 6134.0 6304.0 5878.0\n7296.0 5928.0 6094.0 6122.0 6292.0 5884.0\n7292.0 5920.0 6096.0 6124.0 6262.0 5880.0\n7304.0 5924.0 6100.0 6134.0 6238.0 5878.0\n7288.0 5906.0 6090.0 6122.0 6204.0 5870.0\n7288.0 5916.0 6084.0 6108.0 6174.0 5878.0\n7256.0 5916.0 6078.0 6112.0 6132.0 5886.0\n7234.0 5912.0 6068.0 6110.0 6088.0 5870.0\n7210.0 5898.0 6062.0 6100.0 6038.0 5874.0\n7186.0 5884.0 6048.0 6080.0 5982.0 5866.0\n7152.0 5884.0 6046.0 6022.0 5896.0 5874.0\n7152.0 5894.0 6030.0 6022.0 5880.0 5870.0\n7106.0 5886.0 6038.0 6006.0 5840.0 5874.0\n7098.0 5878.0 6022.0 5974.0 5832.0 5868.0\n7080.0 5874.0 6016.0 5970.0 5794.0 5870.0\n7068.0 5882.0 6014.0 5936.0 5780.0 5872.0\n7056.0 5872.0 6000.0 5932.0 5762.0 5864.0\n7020.0 5872.0 6002.0 5908.0 5752.0 5860.0\n7012.0 5882.0 5990.0 5898.0 5742.0 5870.0\n6986.0 5888.0 5986.0 5868.0 5738.0 5872.0\n6986.0 5882.0 5984.0 5866.0 5736.0 5874.0\n6968.0 5874.0 5978.0 5842.0 5724.0 5866.0\n6930.0 5886.0 5964.0 5822.0 5716.0 5858.0\n6892.0 5884.0 5954.0 5820.0 5722.0 5868.0\n6890.0 5880.0 5968.0 5836.0 5718.0 5862.0\n6900.0 5880.0 5966.0 5812.0 5712.0 5860.0\n6886.0 5870.0 5950.0 5812.0 5714.0 5866.0\n6890.0 5884.0 5956.0 5816.0 5708.0 5866.0\n6876.0 5872.0 5944.0 5812.0 5702.0 5858.0\n6850.0 5878.0 5956.0 5818.0 5706.0 5868.0\n6840.0 5872.0 5944.0 5820.0 5704.0 5862.0\n6820.0 5886.0 5950.0 5812.0 5712.0 5860.0\n6822.0 5878.0 5946.0 5806.0 5708.0 5854.0\n6828.0 5880.0 5944.0 5816.0 5706.0 5862.0\n6820.0 5870.0 5954.0 5814.0 5698.0 5868.0\n6814.0 5874.0 5950.0 5814.0 5698.0 5864.0\n6826.0 5870.0 5948.0 5820.0 5710.0 5864.0\n6824.0 5882.0 5956.0 5814.0 5708.0 5858.0\n6810.0 5860.0 5946.0 5806.0 5700.0 5866.0\n6818.0 5864.0 5954.0 5794.0 5698.0 5870.0\n6808.0 5880.0 5942.0 5816.0 5698.0 5854.0\n6812.0 5880.0 5942.0 5812.0 5702.0 5868.0\n6810.0 5878.0 5946.0 5818.0 5696.0 5860.0\n6820.0 5866.0 5956.0 5808.0 5698.0 5868.0\n6808.0 5880.0 5948.0 5814.0 5700.0 5874.0\n6808.0 5882.0 5950.0 5812.0 5698.0 5866.0\n6804.0 5870.0 5940.0 5806.0 5698.0 5866.0\n6800.0 5870.0 5944.0 5802.0 5694.0 5870.0\n6808.0 5872.0 5948.0 5818.0 5698.0 5858.0\n6806.0 5862.0 5942.0 5816.0 5700.0 5878.0\n6810.0 5880.0 5946.0 5806.0 5702.0 5856.0\n6808.0 5872.0 5940.0 5810.0 5704.0 5862.0\n6812.0 5874.0 5950.0 5816.0 5708.0 5854.0\n6820.0 5862.0 5938.0 5812.0 5702.0 5864.0\n6786.0 5878.0 5954.0 5810.0 5696.0 5864.0\n6812.0 5878.0 5944.0 5820.0 5704.0 5868.0\n6818.0 5876.0 5950.0 5816.0 5710.0 5872.0\n6812.0 5876.0 5952.0 5806.0 5688.0 5862.0\n6808.0 5866.0 5944.0 5808.0 5700.0 5864.0\n6802.0 5870.0 5946.0 5806.0 5692.0 5858.0\n6808.0 5876.0 5944.0 5808.0 5704.0 5862.0\n6814.0 5876.0 5948.0 5802.0 5708.0 5864.0\n6812.0 5896.0 5948.0 5804.0 5702.0 5868.0\n6810.0 5874.0 5940.0 5804.0 5700.0 5862.0\n6810.0 5878.0 5942.0 5806.0 5700.0 5860.0\n6806.0 5874.0 5948.0 5812.0 5706.0 5856.0\n6804.0 5888.0 5936.0 5810.0 5708.0 5862.0\n6798.0 5878.0 5932.0 5808.0 5700.0 5860.0\n6810.0 5872.0 5940.0 5812.0 5708.0 5862.0\n6808.0 5880.0 5942.0 5814.0 5708.0 5872.0\n6814.0 5882.0 5936.0 5806.0 5704.0 5862.0\n6810.0 5872.0 5948.0 5810.0 5704.0 5870.0\n6790.0 5864.0 5950.0 5814.0 5694.0 5852.0\n6812.0 5866.0 5944.0 5812.0 5700.0 5856.0\n6792.0 5878.0 5948.0 5808.0 5708.0 5860.0\n6806.0 5886.0 5948.0 5808.0 5702.0 5866.0\n6806.0 5870.0 5950.0 5816.0 5698.0 5868.0\n6810.0 5880.0 5942.0 5820.0 5692.0 5862.0\n6808.0 5874.0 5948.0 5810.0 5712.0 5866.0\n6800.0 5876.0 5944.0 5814.0 5706.0 5866.0\n6808.0 5878.0 5938.0 5810.0 5692.0 5862.0\n6806.0 5876.0 5948.0 5792.0 5702.0 5858.0\n6804.0 5870.0 5948.0 5796.0 5700.0 5866.0\n6806.0 5878.0 5948.0 5802.0 5692.0 5862.0\n6814.0 5880.0 5950.0 5794.0 5706.0 5868.0\n6804.0 5876.0 5942.0 5802.0 5696.0 5864.0\n6812.0 5870.0 5950.0 5798.0 5706.0 5866.0\n6808.0 5880.0 5948.0 5800.0 5702.0 5874.0\n6808.0 5878.0 5954.0 5798.0 5694.0 5870.0\n6812.0 5882.0 5950.0 5796.0 5702.0 5858.0\n6808.0 5866.0 5944.0 5794.0 5700.0 5872.0\n6806.0 5874.0 5940.0 5800.0 5704.0 5858.0\n6806.0 5882.0 5946.0 5794.0 5706.0 5862.0\n6812.0 5876.0 5948.0 5796.0 5702.0 5874.0\n6808.0 5874.0 5952.0 5806.0 5696.0 5864.0\n6806.0 5880.0 5952.0 5788.0 5698.0 5864.0\n6800.0 5876.0 5942.0 5790.0 5706.0 5868.0\n6814.0 5874.0 5950.0 5790.0 5698.0 5864.0\n6804.0 5878.0 5948.0 5800.0 5704.0 5856.0\n6810.0 5878.0 5940.0 5796.0 5698.0 5864.0\n6804.0 5864.0 5950.0 5800.0 5704.0 5866.0\n6812.0 5872.0 5942.0 5804.0 5704.0 5870.0\n6808.0 5880.0 5944.0 5796.0 5696.0 5858.0\n6806.0 5876.0 5940.0 5798.0 5708.0 5872.0\n6814.0 5870.0 5942.0 5798.0 5702.0 5862.0\n6800.0 5870.0 5950.0 5800.0 5708.0 5868.0\n6810.0 5876.0 5948.0 5806.0 5708.0 5866.0\n6816.0 5876.0 5940.0 5798.0 5702.0 5858.0\n6816.0 5872.0 5952.0 5804.0 5702.0 5868.0\n6812.0 5870.0 5946.0 5798.0 5708.0 5864.0\n6808.0 5876.0 5952.0 5782.0 5706.0 5858.0\n6818.0 5874.0 5950.0 5796.0 5702.0 5862.0\n6818.0 5874.0 5958.0 5792.0 5700.0 5870.0\n6812.0 5868.0 5952.0 5798.0 5698.0 5866.0\n6812.0 5870.0 5948.0 5796.0 5708.0 5864.0\n6808.0 5884.0 5944.0 5802.0 5702.0 5864.0\n6808.0 5868.0 5944.0 5798.0 5704.0 5872.0\n6814.0 5882.0 5934.0 5798.0 5702.0 5866.0\n6810.0 5874.0 5954.0 5792.0 5702.0 5868.0\n6814.0 5868.0 5952.0 5810.0 5696.0 5862.0\n6808.0 5876.0 5944.0 5798.0 5706.0 5876.0\n6812.0 5872.0 5954.0 5802.0 5702.0 5860.0\n6814.0 5880.0 5948.0 5798.0 5714.0 5866.0\n6810.0 5872.0 5930.0 5792.0 5696.0 5856.0\n6810.0 5862.0 5948.0 5800.0 5700.0 5874.0\n6804.0 5888.0 5940.0 5806.0 5708.0 5868.0\n6796.0 5892.0 5946.0 5792.0 5708.0 5864.0\n6810.0 5872.0 5956.0 5798.0 5698.0 5870.0\n6814.0 5874.0 5960.0 5804.0 5698.0 5870.0\n6808.0 5876.0 5954.0 5804.0 5700.0 5868.0\n6810.0 5866.0 5950.0 5804.0 5712.0 5856.0\n6810.0 5874.0 5950.0 5806.0 5700.0 5862.0\n6810.0 5870.0 5952.0 5792.0 5706.0 5864.0\n6802.0 5856.0 5946.0 5786.0 5702.0 5860.0\n6812.0 5872.0 5946.0 5796.0 5704.0 5864.0\n6814.0 5874.0 5946.0 5790.0 5706.0 5870.0\n6806.0 5874.0 5952.0 5790.0 5702.0 5860.0\n6804.0 5868.0 5950.0 5794.0 5700.0 5860.0\n6806.0 5846.0 5950.0 5794.0 5702.0 5870.0\n6796.0 5878.0 5946.0 5804.0 5698.0 5870.0\n6784.0 5858.0 5942.0 5800.0 5702.0 5870.0\n6806.0 5868.0 5952.0 5802.0 5700.0 5862.0\n6806.0 5874.0 5948.0 5806.0 5696.0 5868.0\n6792.0 5884.0 5950.0 5790.0 5702.0 5898.0\n6790.0 5866.0 5938.0 5786.0 5700.0 5850.0\n6812.0 5866.0 5946.0 5798.0 5704.0 5868.0\n6786.0 5874.0 5948.0 5782.0 5696.0 5860.0\n6816.0 5870.0 5938.0 5798.0 5706.0 5866.0\n6808.0 5872.0 5950.0 5796.0 5698.0 5858.0\n6812.0 5872.0 5948.0 5798.0 5704.0 5864.0\n6808.0 5878.0 5942.0 5800.0 5692.0 5862.0\n6812.0 5868.0 5948.0 5790.0 5704.0 5870.0\n6810.0 5868.0 5954.0 5806.0 5700.0 5864.0\n6812.0 5868.0 5942.0 5784.0 5698.0 5860.0\n6804.0 5870.0 5948.0 5800.0 5700.0 5866.0\n6802.0 5874.0 5950.0 5784.0 5706.0 5864.0\n6812.0 5870.0 5944.0 5800.0 5700.0 5860.0\n6810.0 5870.0 5942.0 5798.0 5704.0 5872.0\n6802.0 5878.0 5948.0 5802.0 5698.0 5862.0\n6804.0 5874.0 5950.0 5802.0 5694.0 5860.0\n6812.0 5870.0 5940.0 5798.0 5698.0 5860.0\n6804.0 5882.0 5942.0 5792.0 5698.0 5828.0\n6804.0 5874.0 5944.0 5804.0 5702.0 5870.0\n6812.0 5876.0 5946.0 5806.0 5702.0 5862.0\n6808.0 5874.0 5946.0 5796.0 5704.0 5868.0\n6808.0 5866.0 5946.0 5792.0 5698.0 5870.0\n6808.0 5878.0 5938.0 5800.0 5706.0 5864.0\n6798.0 5868.0 5952.0 5802.0 5704.0 5908.0\n6814.0 5864.0 5948.0 5794.0 5702.0 5866.0\n6810.0 5868.0 5962.0 5796.0 5702.0 5868.0\n6806.0 5868.0 5956.0 5800.0 5702.0 5860.0\n6816.0 5878.0 5942.0 5792.0 5706.0 5864.0\n6788.0 5870.0 5952.0 5798.0 5694.0 5866.0\n6804.0 5872.0 5942.0 5798.0 5708.0 5868.0\n6816.0 5878.0 5946.0 5792.0 5702.0 5868.0\n6808.0 5872.0 5946.0 5808.0 5710.0 5860.0\n6804.0 5876.0 5950.0 5790.0 5702.0 5866.0\n6810.0 5868.0 5940.0 5782.0 5694.0 5854.0\n6800.0 5876.0 5946.0 5806.0 5694.0 5866.0\n6806.0 5864.0 5956.0 5792.0 5700.0 5878.0\n