6788.0 5914.0 6066.0 5788.0 5732.0 5892.0\n6784.0 5906.0 6060.0 5794.0 5730.0 5892.0\n6772.0 5902.0 6066.0 5776.0 5724.0 5894.0\n6780.0 5910.0 6058.0 5784.0 5734.0 5882.0\n6770.0 5904.0 6064.0 5770.0 5724.0 5878.0\n6772.0 5910.0 6056.0 5782.0 5728.0 5886.0\n6776.0 5904.0 6064.0 5780.0 5734.0 5886.0\n6776.0 5912.0 6064.0 5778.0 5734.0 5884.0\n6766.0 5914.0 6060.0 5780.0 5734.0 5878.0\n6780.0 5904.0 6058.0 5772.0 5726.0 5886.0\n6780.0 5910.0 6062.0 5790.0 5728.0 5880.0\n6772.0 5900.0 6056.0 5778.0 5734.0 5892.0\n6774.0 5900.0 6054.0 5784.0 5722.0 5884.0\n6772.0 5898.0 6058.0 5788.0 5730.0 5886.0\n6772.0 5914.0 6068.0 5776.0 5734.0 5886.0\n6774.0 5902.0 6058.0 5780.0 5724.0 5894.0\n6784.0 5906.0 6056.0 5766.0 5730.0 5884.0\n6780.0 5916.0 6060.0 5786.0 5732.0 5890.0\n6762.0 5902.0 6060.0 5786.0 5736.0 5886.0\n6778.0 5906.0 6060.0 5782.0 5730.0 5886.0\n6772.0 5900.0 6052.0 5780.0 5730.0 5888.0\n6774.0 5898.0 6058.0 5772.0 5724.0 5886.0\n6774.0 5898.0 6068.0 5772.0 5728.0 5892.0\n6770.0 5908.0 6066.0 5774.0 5736.0 5894.0\n6774.0 5904.0 6054.0 5782.0 5730.0 5890.0\n6772.0 5900.0 6056.0 5788.0 5732.0 5878.0\n6776.0 5906.0 6064.0 5784.0 5734.0 5884.0\n6778.0 5908.0 6056.0 5780.0 5732.0 5894.0\n6776.0 5910.0 6058.0 5780.0 5722.0 5874.0\n6778.0 5898.0 6060.0 5776.0 5736.0 5884.0\n6772.0 5908.0 6056.0 5772.0 5724.0 5886.0\n6778.0 5908.0 6066.0 5772.0 5734.0 5890.0\n6770.0 5910.0 6060.0 5780.0 5734.0 5878.0\n6772.0 5910.0 6064.0 5778.0 5728.0 5884.0\n6778.0 5908.0 6060.0 5778.0 5728.0 5884.0\n6774.0 5912.0 6062.0 5782.0 5732.0 5882.0\n6770.0 5902.0 6054.0 5776.0 5726.0 5880.0\n6766.0 5892.0 6052.0 5772.0 5732.0 5884.0\n6804.0 5898.0 6064.0 5784.0 5724.0 5876.0\n6772.0 5908.0 6058.0 5788.0 5736.0 5886.0\n6776.0 5896.0 6062.0 5776.0 5728.0 5890.0\n6776.0 5910.0 6070.0 5784.0 5734.0 5884.0\n6780.0 5896.0 6070.0 5784.0 5732.0 5886.0\n6776.0 5942.0 6068.0 5780.0 5732.0 5894.0\n6774.0 5902.0 6052.0 5780.0 5736.0 5880.0\n6780.0 5884.0 6054.0 5776.0 5732.0 5890.0\n6778.0 5914.0 6058.0 5774.0 5740.0 5884.0\n6774.0 5890.0 6060.0 5784.0 5710.0 5880.0\n6768.0 5898.0 6050.0 5784.0 5734.0 5888.0\n6780.0 5910.0 6070.0 5788.0 5734.0 5882.0\n6774.0 5898.0 6064.0 5786.0 5736.0 5890.0\n6780.0 5908.0 6060.0 5786.0 5722.0 5888.0\n6772.0 5900.0 6060.0 5780.0 5730.0 5886.0\n6772.0 5908.0 6052.0 5784.0 5736.0 5886.0\n6774.0 5896.0 6054.0 5776.0 5734.0 5876.0\n6760.0 5902.0 6056.0 5782.0 5738.0 5880.0\n6778.0 5906.0 6060.0 5780.0 5734.0 5888.0\n6764.0 5898.0 6060.0 5774.0 5726.0 5890.0\n6778.0 5904.0 6056.0 5772.0 5732.0 5888.0\n6778.0 5892.0 6062.0 5774.0 5724.0 5896.0\n6774.0 5904.0 6064.0 5772.0 5726.0 5882.0\n6778.0 5910.0 6056.0 5776.0 5730.0 5886.0\n6774.0 5906.0 6058.0 5788.0 5728.0 5882.0\n6774.0 5914.0 6064.0 5786.0 5720.0 5890.0\n6774.0 5900.0 6058.0 5788.0 5736.0 5884.0\n6784.0 5904.0 6062.0 5778.0 5728.0 5888.0\n6774.0 5896.0 6054.0 5780.0 5742.0 5882.0\n6766.0 5902.0 6066.0 5782.0 5740.0 5892.0\n6780.0 5904.0 6056.0 5782.0 5738.0 5886.0\n6772.0 5892.0 6058.0 5786.0 5728.0 5890.0\n6776.0 5906.0 6058.0 5784.0 5724.0 5886.0\n6796.0 5906.0 6050.0 5786.0 5726.0 5888.0\n6782.0 5912.0 6050.0 5770.0 5738.0 5888.0\n6774.0 5898.0 6046.0 5792.0 5724.0 5884.0\n6776.0 5906.0 6062.0 5790.0 5732.0 5886.0\n6776.0 5910.0 6062.0 5772.0 5728.0 5892.0\n6772.0 5906.0 6060.0 5784.0 5738.0 5886.0\n6774.0 5908.0 6056.0 5782.0 5732.0 5890.0\n6774.0 5898.0 6058.0 5778.0 5736.0 5886.0\n6776.0 5900.0 6046.0 5784.0 5726.0 5886.0\n6782.0 5898.0 6062.0 5782.0 5724.0 5886.0\n6784.0 5916.0 6054.0 5774.0 5724.0 5884.0\n6782.0 5894.0 6060.0 5782.0 5734.0 5900.0\n6778.0 5900.0 6052.0 5780.0 5730.0 5892.0\n6774.0 5902.0 6056.0 5792.0 5722.0 5882.0\n6780.0 5896.0 6068.0 5798.0 5732.0 5882.0\n6782.0 5914.0 6046.0 5770.0 5724.0 5882.0\n6780.0 5902.0 6052.0 5790.0 5732.0 5886.0\n6774.0 5908.0 6054.0 5784.0 5720.0 5884.0\n6778.0 5900.0 6054.0 5784.0 5722.0 5886.0\n6774.0 5894.0 6068.0 5782.0 5736.0 5890.0\n6770.0 5904.0 6056.0 5786.0 5734.0 5884.0\n6776.0 5902.0 6052.0 5782.0 5730.0 5880.0\n6780.0 5904.0 6056.0 5786.0 5728.0 5890.0\n6778.0 5908.0 6060.0 5780.0 5728.0 5882.0\n6770.0 5900.0 6060.0 5780.0 5724.0 5884.0\n6776.0 5902.0 6054.0 5774.0 5728.0 5882.0\n6772.0 5904.0 6056.0 5784.0 5732.0 5876.0\n6772.0 5906.0 6060.0 5772.0 5732.0 5882.0\n6772.0 5912.0 5996.0 5770.0 5724.0 5882.0\n6774.0 5898.0 6060.0 5778.0 5734.0 5886.0\n6774.0 5906.0 6066.0 5776.0 5726.0 5886.0\n6780.0 5900.0 6062.0 5768.0 5728.0 5884.0\n6774.0 5904.0 6060.0 5772.0 5726.0 5880.0\n6766.0 5906.0 6060.0 5780.0 5728.0 5892.0\n6782.0 5908.0 6052.0 5776.0 5726.0 5894.0\n6770.0 5908.0 6062.0 5782.0 5732.0 5888.0\n6774.0 5906.0 6058.0 5790.0 5734.0 5886.0\n6774.0 5898.0 6058.0 5792.0 5732.0 5892.0\n6770.0 5910.0 6058.0 5784.0 5728.0 5882.0\n6772.0 5892.0 6062.0 5780.0 5736.0 5878.0\n6770.0 5912.0 6058.0 5766.0 5728.0 5886.0\n6768.0 5908.0 6050.0 5780.0 5730.0 5886.0\n6774.0 5894.0 6056.0 5776.0 5736.0 5884.0\n6776.0 5906.0 6058.0 5780.0 5728.0 5886.0\n6772.0 5912.0 6054.0 5776.0 5732.0 5894.0\n6764.0 5904.0 6062.0 5780.0 5730.0 5886.0\n6780.0 5906.0 6056.0 5772.0 5732.0 5884.0\n6770.0 5902.0 6058.0 5770.0 5728.0 5886.0\n6770.0 5908.0 6046.0 5772.0 5728.0 5888.0\n6778.0 5906.0 6066.0 5784.0 5728.0 5890.0\n6778.0 5902.0 6060.0 5782.0 5724.0 5882.0\n6774.0 5906.0 6050.0 5788.0 5730.0 5884.0\n6778.0 5898.0 6054.0 5770.0 5728.0 5884.0\n6772.0 5908.0 6052.0 5766.0 5726.0 5892.0\n6768.0 5898.0 6064.0 5778.0 5734.0 5884.0\n6776.0 5900.0 6058.0 5778.0 5724.0 5880.0\n6772.0 5894.0 6046.0 5780.0 5734.0 5894.0\n6776.0 5894.0 6054.0 5784.0 5730.0 5892.0\n6772.0 5902.0 6060.0 5782.0 5732.0 5890.0\n6768.0 5904.0 6062.0 5782.0 5722.0 5880.0\n6774.0 5896.0 6062.0 5788.0 5742.0 5892.0\n6778.0 5910.0 6062.0 5778.0 5734.0 5886.0\n6778.0 5916.0 6056.0 5784.0 5738.0 5888.0\n6776.0 5896.0 6066.0 5776.0 5740.0 5886.0\n6778.0 5906.0 6046.0 5782.0 5728.0 5894.0\n6762.0 5886.0 6070.0 5776.0 5734.0 5882.0\n6770.0 5908.0 6054.0 5772.0 5730.0 5886.0\n6782.0 5908.0 6050.0 5792.0 5734.0 5882.0\n6776.0 5896.0 6054.0 5780.0 5730.0 5888.0\n6782.0 5898.0 6062.0 5782.0 5730.0 5886.0\n6762.0 5902.0 6056.0 5784.0 5726.0 5884.0\n6778.0 5894.0 6062.0 5778.0 5722.0 5882.0\n6772.0 5908.0 6062.0 5776.0 5724.0 5892.0\n6766.0 5886.0 6060.0 5774.0 5738.0 5892.0\n6780.0 5910.0 6056.0 5780.0 5742.0 5884.0\n6778.0 5900.0 6060.0 5774.0 5730.0 5886.0\n6772.0 5898.0 6062.0 5774.0 5726.0 5882.0\n6776.0 5904.0 6062.0 5776.0 5726.0 5890.0\n6770.0 5902.0 6064.0 5790.0 5726.0 5880.0\n6768.0 5906.0 6056.0 5778.0 5724.0 5886.0\n6774.0 5900.0 6058.0 5766.0 5728.0 5890.0\n6776.0 5902.0 6060.0 5780.0 5730.0 5882.0\n6770.0 5894.0 6060.0 5784.0 5732.0 5878.0\n6764.0 5904.0 6054.0 5790.0 5724.0 5886.0\n6770.0 5912.0 6060.0 5778.0 5726.0 5884.0\n6764.0 5904.0 6046.0 5780.0 5720.0 5892.0\n6770.0 5908.0 6054.0 5776.0 5728.0 5890.0\n6776.0 5896.0 6058.0 5778.0 5730.0 5882.0\n6770.0 5906.0 6052.0 5786.0 5734.0 5874.0\n6766.0 5902.0 6054.0 5784.0 5728.0 5886.0\n6774.0 5912.0 6060.0 5790.0 5730.0 5884.0\n6772.0 5908.0 6056.0 5782.0 5728.0 5890.0\n6774.0 5906.0 6054.0 5776.0 5732.0 5882.0\n6770.0 5896.0 6058.0 5784.0 5734.0 5892.0\n6776.0 5900.0 6052.0 5778.0 5726.0 5890.0\n6776.0 5898.0 6052.0 5772.0 5726.0 5882.0\n6766.0 5908.0 6066.0 5784.0 5726.0 5888.0\n6772.0 5894.0 6062.0 5788.0 5728.0 5890.0\n6770.0 5900.0 6056.0 5780.0 5726.0 5884.0\n6770.0 5900.0 6062.0 5786.0 5728.0 5890.0\n6774.0 5900.0 6062.0 5784.0 5730.0 5890.0\n6772.0 5906.0 6054.0 5782.0 5732.0 5888.0\n6768.0 5902.0 6060.0 5780.0 5724.0 5888.0\n6770.0 5888.0 6060.0 5774.0 5738.0 5884.0\n6768.0 5906.0 6062.0 5784.0 5730.0 5884.0\n6768.0 5898.0 6066.0 5774.0 5732.0 5886.0\n6766.0 5908.0 6056.0 5778.0 5724.0 5890.0\n6780.0 5898.0 6056.0 5782.0 5730.0 5890.0\n6778.0 5896.0 6064.0 5774.0 5730.0 5884.0\n6772.0 5914.0 6062.0 5780.0 5718.0 5882.0\n6768.0 5906.0 6064.0 5780.0 5732.0 5880.0\n6774.0 5902.0 6056.0 5790.0 5728.0 5888.0\n6770.0 5900.0 6056.0 5782.0 5732.0 5888.0\n6776.0 5892.0 6062.0 5776.0 5724.0 5880.0\n6776.0 5908.0 6046.0 5778.0 5726.0 5892.0\n6774.0 5906.0 6060.0 5786.0 5726.0 5878.0\n6776.0 5902.0 6068.0 5780.0 5742.0 5888.0\n6776.0 5908.0 6052.0 5778.0 5730.0 5884.0\n6772.0 5902.0 6060.0 5778.0 5728.0 5888.0\n6772.0 5908.0 6060.0 5778.0 5732.0 5886.0\n6774.0 5904.0 6070.0 5788.0 5726.0 5888.0\n6774.0 5912.0 6064.0 5780.0 5722.0 5880.0\n6776.0 5906.0 6050.0 5788.0 5734.0 5890.0\n6772.0 5900.0 6058.0 5780.0 5722.0 5890.0\n6766.0 5908.0 6054.0 5778.0 5732.0 5890.0\n6778.0 5902.0 6060.0 5776.0 5732.0 5894.0\n6772.0 5902.0 6052.0 5770.0 5736.0 5888.0\n6766.0 5896.0 6062.0 5778.0 5734.0 5890.0\n6770.0 5904.0 6058.0 5774.0 5732.0 5880.0\n6780.0 5900.0 6062.0 5780.0 5728.0 5886.0\n6760.0 5906.0 6062.0 5780.0 5722.0 5886.0\n6776.0 5894.0 6058.0 5780.0 5728.0 5886.0\n6758.0 5890.0 6054.0 5780.0 5738.0 5878.0\n6760.0 5886.0 6064.0 5770.0 5730.0 5888.0\n6774.0 5896.0 6062.0 5780.0 5736.0 5886.0\n6774.0 5892.0 6054.0 5782.0 5730.0 5886.0\n6764.0 5906.0 6052.0 5790.0 5728.0 5892.0\n6778.0 5902.0 6056.0 5782.0 5720.0 5890.0\n6776.0 5906.0 6058.0 5778.0 5734.0 5892.0\n6788.0 5904.0 6058.0 5788.0 5738.0 5882.0\n6778.0 5910.0 6060.0 5788.0 5724.0 5884.0\n6774.0 5908.0 6062.0 5790.0 5722.0 5888.0\n6772.0 5902.0 6048.0 5774.0 5720.0 5890.0\n6776.0 5914.0 6056.0 5786.0 5732.0 5890.0\n6786.0 5892.0 6060.0 5782.0 5722.0 5884.0\n6778.0 5906.0 6056.0 5780.0 5728.0 5892.0\n6766.0 5908.0 6062.0 5784.0 5732.0 5888.0\n6770.0 5904.0 6068.0 5784.0 5728.0 5884.0\n6774.0 5910.0 6054.0 5788.0 5732.0 5880.0\n6770.0 5894.0 6054.0 5780.0 5734.0 5890.0\n6772.0 5892.0 6066.0 5790.0 5730.0 5888.0\n6774.0 5898.0 6062.0 5784.0 5730.0 5892.0\n6770.0 5908.0 6058.0 5776.0 5736.0 5892.0\n6766.0 5902.0 6058.0 5782.0 5726.0 5882.0\n6776.0 5900.0 6064.0 5782.0 5728.0 5890.0\n6774.0 5898.0 6054.0 5778.0 5726.0 5878.0\n6782.0 5908.0 6050.0 5792.0 5740.0 5886.0\n6774.0 5904.0 6070.0 5774.0 5730.0 5882.0\n6764.0 5904.0 6060.0 5786.0 5726.0 5874.0\n6774.0 5900.0 6060.0 5776.0 5732.0 5884.0\n6764.0 5906.0 6056.0 5784.0 5730.0 5886.0\n6774.0 5902.0 6064.0 5788.0 5728.0 5892.0\n