6846.0 5968.0 5964.0 5800.0 5714.0 5868.0\n6848.0 5958.0 5968.0 5786.0 5712.0 5876.0\n6866.0 5974.0 5970.0 5790.0 5714.0 5866.0\n6866.0 5958.0 5962.0 5796.0 5716.0 5874.0\n6858.0 5960.0 5966.0 5802.0 5708.0 5874.0\n6860.0 5966.0 5968.0 5798.0 5714.0 5870.0\n6850.0 5956.0 5966.0 5802.0 5714.0 5874.0\n6852.0 5970.0 5962.0 5800.0 5716.0 5870.0\n6858.0 5970.0 5974.0 5794.0 5710.0 5876.0\n6856.0 5958.0 5984.0 5800.0 5716.0 5870.0\n6862.0 5968.0 5974.0 5802.0 5710.0 5872.0\n6864.0 5964.0 5966.0 5788.0 5718.0 5868.0\n6860.0 5966.0 5962.0 5790.0 5710.0 5864.0\n6856.0 5960.0 5960.0 5802.0 5708.0 5878.0\n6860.0 5954.0 5970.0 5806.0 5712.0 5878.0\n6852.0 5964.0 5966.0 5790.0 5710.0 5870.0\n6860.0 5972.0 5968.0 5804.0 5718.0 5866.0\n6856.0 5972.0 5974.0 5800.0 5712.0 5874.0\n6854.0 5966.0 5964.0 5788.0 5716.0 5878.0\n6854.0 5974.0 5968.0 5802.0 5712.0 5870.0\n6866.0 5964.0 5964.0 5798.0 5716.0 5874.0\n6864.0 5960.0 5972.0 5806.0 5716.0 5864.0\n6856.0 5960.0 5976.0 5806.0 5710.0 5862.0\n6850.0 5958.0 5972.0 5798.0 5718.0 5878.0\n6862.0 5966.0 5966.0 5790.0 5718.0 5870.0\n6864.0 5964.0 5974.0 5788.0 5706.0 5866.0\n6848.0 5958.0 5962.0 5792.0 5706.0 5876.0\n6854.0 5964.0 5964.0 5794.0 5724.0 5872.0\n6864.0 5962.0 5964.0 5794.0 5706.0 5870.0\n6854.0 5962.0 5972.0 5806.0 5716.0 5870.0\n6856.0 5966.0 5964.0 5802.0 5712.0 5870.0\n6858.0 5964.0 5972.0 5810.0 5720.0 5874.0\n6854.0 5974.0 5968.0 5820.0 5716.0 5870.0\n6858.0 5964.0 5970.0 5798.0 5710.0 5866.0\n6862.0 5976.0 5970.0 5794.0 5708.0 5870.0\n6866.0 5966.0 5960.0 5798.0 5720.0 5866.0\n6864.0 5982.0 5962.0 5802.0 5710.0 5874.0\n6866.0 5968.0 5974.0 5800.0 5722.0 5870.0\n6870.0 5968.0 5970.0 5804.0 5718.0 5864.0\n6870.0 5956.0 5978.0 5794.0 5718.0 5876.0\n6862.0 5964.0 5970.0 5800.0 5714.0 5870.0\n6864.0 5960.0 5972.0 5792.0 5712.0 5868.0\n6860.0 5962.0 5974.0 5800.0 5712.0 5866.0\n6862.0 5958.0 5970.0 5804.0 5718.0 5858.0\n6860.0 5964.0 5970.0 5796.0 5710.0 5870.0\n6850.0 5966.0 5972.0 5802.0 5718.0 5874.0\n6860.0 5962.0 5980.0 5808.0 5726.0 5872.0\n6856.0 5962.0 5968.0 5804.0 5722.0 5866.0\n6860.0 5966.0 5964.0 5804.0 5710.0 5872.0\n6862.0 5970.0 5968.0 5804.0 5716.0 5868.0\n6856.0 5958.0 5958.0 5802.0 5716.0 5870.0\n6862.0 5966.0 5962.0 5800.0 5716.0 5870.0\n6860.0 5966.0 5956.0 5806.0 5718.0 5868.0\n6858.0 5966.0 5978.0 5808.0 5726.0 5872.0\n6866.0 5964.0 5976.0 5788.0 5724.0 5874.0\n6862.0 5964.0 5976.0 5802.0 5720.0 5866.0\n6866.0 5966.0 5974.0 5792.0 5716.0 5872.0\n6860.0 5970.0 5980.0 5798.0 5714.0 5870.0\n6870.0 5966.0 5984.0 5806.0 5724.0 5862.0\n6868.0 5964.0 5974.0 5808.0 5724.0 5872.0\n6882.0 5962.0 5976.0 5820.0 5728.0 5878.0\n6886.0 5968.0 5988.0 5816.0 5724.0 5874.0\n6904.0 5972.0 5982.0 5814.0 5732.0 5876.0\n6934.0 5972.0 5976.0 5822.0 5734.0 5876.0\n6958.0 5962.0 5998.0 5830.0 5728.0 5872.0\n6990.0 5984.0 5986.0 5838.0 5728.0 5884.0\n6988.0 5984.0 5982.0 5850.0 5736.0 5866.0\n6984.0 5984.0 6000.0 5842.0 5734.0 5866.0\n6986.0 5988.0 5994.0 5848.0 5736.0 5866.0\n6984.0 5982.0 5988.0 5848.0 5732.0 5874.0\n6988.0 5980.0 5992.0 5840.0 5732.0 5870.0\n6976.0 5978.0 5982.0 5838.0 5728.0 5872.0\n6974.0 5980.0 5986.0 5846.0 5734.0 5876.0\n6986.0 5978.0 6000.0 5842.0 5736.0 5862.0\n6990.0 5978.0 5996.0 5840.0 5736.0 5876.0\n6992.0 5984.0 5992.0 5848.0 5740.0 5870.0\n6982.0 5982.0 5992.0 5842.0 5736.0 5868.0\n6982.0 5974.0 6008.0 5838.0 5736.0 5864.0\n6982.0 5986.0 6000.0 5834.0 5734.0 5870.0\n6978.0 5980.0 6008.0 5838.0 5734.0 5870.0\n6962.0 5974.0 5988.0 5824.0 5724.0 5870.0\n6962.0 5982.0 5996.0 5820.0 5734.0 5872.0\n6946.0 5966.0 5992.0 5814.0 5728.0 5870.0\n6918.0 5968.0 5994.0 5818.0 5728.0 5864.0\n6924.0 5966.0 5982.0 5822.0 5734.0 5870.0\n6920.0 5962.0 5978.0 5818.0 5726.0 5870.0\n6920.0 5966.0 5982.0 5822.0 5724.0 5866.0\n6914.0 5960.0 5984.0 5818.0 5718.0 5870.0\n6920.0 5966.0 5986.0 5804.0 5718.0 5862.0\n6918.0 5962.0 5976.0 5810.0 5716.0 5868.0\n6918.0 5972.0 5982.0 5806.0 5716.0 5878.0\n6914.0 5958.0 5970.0 5800.0 5718.0 5870.0\n6918.0 5962.0 5980.0 5808.0 5714.0 5866.0\n6912.0 5966.0 5976.0 5796.0 5720.0 5868.0\n6914.0 5974.0 5982.0 5806.0 5720.0 5876.0\n6920.0 5964.0 5982.0 5798.0 5716.0 5870.0\n6920.0 5960.0 5972.0 5806.0 5726.0 5870.0\n6900.0 5962.0 5972.0 5804.0 5722.0 5870.0\n6908.0 5958.0 5966.0 5800.0 5716.0 5870.0\n6908.0 5968.0 5970.0 5788.0 5712.0 5862.0\n6904.0 5958.0 5970.0 5802.0 5714.0 5872.0\n6914.0 5966.0 5980.0 5804.0 5726.0 5878.0\n6910.0 5968.0 5968.0 5796.0 5712.0 5872.0\n6908.0 5966.0 5980.0 5808.0 5716.0 5866.0\n6900.0 5962.0 5964.0 5802.0 5706.0 5874.0\n6908.0 5962.0 5978.0 5802.0 5722.0 5866.0\n6906.0 5958.0 5976.0 5808.0 5724.0 5868.0\n6910.0 5970.0 5970.0 5804.0 5718.0 5868.0\n6904.0 5968.0 5970.0 5800.0 5718.0 5864.0\n6914.0 5970.0 5976.0 5800.0 5706.0 5872.0\n6894.0 5970.0 5974.0 5802.0 5710.0 5870.0\n6916.0 5954.0 5964.0 5798.0 5704.0 5874.0\n6898.0 5944.0 5972.0 5788.0 5710.0 5868.0\n6904.0 5964.0 5974.0 5802.0 5706.0 5860.0\n6904.0 5964.0 5978.0 5794.0 5710.0 5872.0\n6902.0 5958.0 5970.0 5798.0 5716.0 5874.0\n6914.0 5960.0 5974.0 5794.0 5710.0 5864.0\n6898.0 5962.0 5974.0 5802.0 5712.0 5872.0\n6904.0 5966.0 5970.0 5796.0 5712.0 5878.0\n6908.0 5962.0 5968.0 5786.0 5722.0 5880.0\n6906.0 5960.0 5976.0 5804.0 5720.0 5878.0\n6910.0 5974.0 5964.0 5800.0 5720.0 5874.0\n6906.0 5964.0 5970.0 5814.0 5716.0 5874.0\n6906.0 5964.0 5970.0 5804.0 5718.0 5872.0\n6914.0 5964.0 5968.0 5808.0 5714.0 5874.0\n6910.0 5962.0 5970.0 5812.0 5708.0 5866.0\n6906.0 5954.0 5958.0 5804.0 5716.0 5868.0\n6890.0 5962.0 5972.0 5798.0 5720.0 5880.0\n6916.0 5962.0 5982.0 5802.0 5710.0 5868.0\n6910.0 5966.0 5966.0 5800.0 5706.0 5878.0\n6944.0 5956.0 5972.0 5806.0 5712.0 5874.0\n6918.0 5966.0 5970.0 5800.0 5722.0 5866.0\n6904.0 5964.0 5970.0 5796.0 5710.0 5864.0\n6900.0 5960.0 5960.0 5800.0 5708.0 5870.0\n6912.0 5972.0 5972.0 5796.0 5718.0 5862.0\n6906.0 5970.0 5968.0 5810.0 5718.0 5876.0\n6914.0 5968.0 5972.0 5804.0 5712.0 5874.0\n6898.0 5964.0 5972.0 5802.0 5716.0 5874.0\n6902.0 5994.0 5972.0 5802.0 5720.0 5870.0\n6910.0 5958.0 5976.0 5798.0 5710.0 5878.0\n6906.0 5966.0 5970.0 5794.0 5714.0 5882.0\n6908.0 5964.0 5974.0 5800.0 5714.0 5874.0\n6906.0 5954.0 5970.0 5802.0 5710.0 5870.0\n6902.0 5962.0 5970.0 5796.0 5712.0 5868.0\n6914.0 5962.0 5964.0 5794.0 5710.0 5876.0\n6916.0 5960.0 5968.0 5798.0 5718.0 5872.0\n6908.0 5974.0 5976.0 5806.0 5724.0 5876.0\n6912.0 5964.0 5962.0 5806.0 5712.0 5872.0\n6906.0 5970.0 5974.0 5788.0 5718.0 5874.0\n6908.0 5960.0 5970.0 5802.0 5704.0 5868.0\n6912.0 5964.0 5968.0 5800.0 5716.0 5870.0\n6908.0 5964.0 5970.0 5798.0 5714.0 5874.0\n6906.0 5966.0 5974.0 5804.0 5712.0 5866.0\n6908.0 5972.0 5978.0 5810.0 5718.0 5866.0\n6916.0 5968.0 5976.0 5802.0 5714.0 5860.0\n6918.0 5974.0 5966.0 5808.0 5708.0 5870.0\n6906.0 5964.0 5974.0 5804.0 5710.0 5876.0\n6900.0 5964.0 5968.0 5804.0 5714.0 5878.0\n6908.0 5960.0 5972.0 5806.0 5714.0 5872.0\n6914.0 5966.0 5972.0 5802.0 5706.0 5866.0\n6914.0 5966.0 5972.0 5796.0 5702.0 5870.0\n6910.0 5966.0 5970.0 5794.0 5716.0 5870.0\n6908.0 5966.0 5970.0 5802.0 5718.0 5876.0\n6912.0 5974.0 5972.0 5788.0 5720.0 5872.0\n6904.0 5970.0 5966.0 5810.0 5706.0 5872.0\n6910.0 5972.0 5960.0 5796.0 5720.0 5874.0\n6920.0 5968.0 5974.0 5806.0 5716.0 5868.0\n6902.0 5946.0 5974.0 5792.0 5712.0 5872.0\n6906.0 5972.0 5974.0 5810.0 5722.0 5872.0\n6910.0 5966.0 5974.0 5798.0 5706.0 5874.0\n6906.0 5964.0 5968.0 5802.0 5718.0 5868.0\n6906.0 5966.0 5972.0 5804.0 5716.0 5876.0\n6918.0 5960.0 5968.0 5800.0 5718.0 5874.0\n6902.0 5964.0 5970.0 5794.0 5710.0 5880.0\n6900.0 5966.0 5972.0 5800.0 5686.0 5864.0\n6910.0 5964.0 5974.0 5802.0 5714.0 5866.0\n6898.0 5958.0 5966.0 5798.0 5718.0 5872.0\n6910.0 5960.0 5974.0 5802.0 5716.0 5872.0\n6896.0 5958.0 5974.0 5798.0 5716.0 5872.0\n6908.0 5964.0 5966.0 5798.0 5710.0 5870.0\n6906.0 5966.0 5972.0 5802.0 5714.0 5874.0\n6910.0 5960.0 5970.0 5794.0 5718.0 5874.0\n6910.0 5964.0 5966.0 5790.0 5710.0 5868.0\n6910.0 5962.0 5976.0 5802.0 5716.0 5874.0\n6902.0 5960.0 5966.0 5798.0 5712.0 5868.0\n6908.0 5966.0 5964.0 5802.0 5720.0 5862.0\n6900.0 5962.0 5974.0 5796.0 5722.0 5878.0\n6906.0 5964.0 5978.0 5804.0 5720.0 5870.0\n6908.0 5960.0 5980.0 5798.0 5718.0 5878.0\n6916.0 5952.0 5978.0 5808.0 5710.0 5872.0\n6900.0 5954.0 5968.0 5796.0 5710.0 5862.0\n6902.0 5956.0 5968.0 5798.0 5708.0 5872.0\n6912.0 5958.0 5970.0 5790.0 5712.0 5868.0\n6908.0 5956.0 5958.0 5810.0 5718.0 5868.0\n6914.0 5962.0 5968.0 5792.0 5714.0 5862.0\n6910.0 5964.0 5972.0 5796.0 5716.0 5872.0\n6904.0 5966.0 5962.0 5804.0 5710.0 5864.0\n6902.0 5952.0 5966.0 5786.0 5716.0 5866.0\n6898.0 5962.0 5970.0 5794.0 5714.0 5876.0\n6902.0 5962.0 5978.0 5804.0 5720.0 5874.0\n6908.0 5968.0 5962.0 5798.0 5714.0 5874.0\n6908.0 5966.0 5974.0 5790.0 5714.0 5862.0\n6908.0 5958.0 5972.0 5790.0 5710.0 5874.0\n6906.0 5962.0 5972.0 5802.0 5720.0 5874.0\n6912.0 5964.0 5960.0 5790.0 5718.0 5872.0\n6908.0 5956.0 5974.0 5792.0 5704.0 5864.0\n6902.0 5964.0 5978.0 5806.0 5710.0 5876.0\n6910.0 5954.0 5960.0 5794.0 5710.0 5870.0\n6902.0 5960.0 5970.0 5800.0 5712.0 5876.0\n6906.0 5966.0 5966.0 5804.0 5704.0 5876.0\n6906.0 5960.0 5980.0 5796.0 5708.0 5870.0\n6910.0 5954.0 5966.0 5804.0 5714.0 5868.0\n6908.0 5968.0 5968.0 5802.0 5696.0 5874.0\n6898.0 5974.0 5968.0 5794.0 5708.0 5868.0\n6898.0 5950.0 5968.0 5782.0 5716.0 5872.0\n6910.0 5964.0 5970.0 5806.0 5712.0 5874.0\n6910.0 5964.0 5972.0 5804.0 5714.0 5880.0\n6912.0 5958.0 5966.0 5796.0 5710.0 5868.0\n6908.0 5954.0 5972.0 5804.0 5722.0 5864.0\n6904.0 5956.0 5962.0 5798.0 5716.0 5872.0\n6908.0 5956.0 5962.0 5788.0 5720.0 5866.0\n6904.0 5954.0 5960.0 5800.0 5712.0 5862.0\n6908.0 5960.0 5976.0 5814.0 5722.0 5862.0\n6910.0 5966.0 5964.0 5802.0 5710.0 5866.0\n6908.0 5962.0 5974.0 5796.0 5718.0 5868.0\n6920.0 5966.0 5968.0 5792.0 5708.0 5878.0\n6910.0 5962.0 5976.0 5796.0 5706.0 5872.0\n6896.0 5966.0 5974.0 5788.0 5708.0 5870.0\n6906.0 5966.0 5976.0 5802.0 5716.0 5868.0\n6908.0 5966.0 5966.0 5798.0 5712.0 5858.0\n6908.0 5962.0 5972.0 5802.0 5716.0 5866.0\n6908.0 5958.0 5974.0 5794.0 5714.0 5866.0\n6906.0 5966.0 5972.0 5796.0 5710.0 5870.0\n6896.0 5960.0 5972.0 5802.0 5708.0 5870.0\n