6666.0 5866.0 5930.0 5780.0 5690.0 5868.0\n6664.0 5876.0 5930.0 5780.0 5682.0 5860.0\n6668.0 5878.0 5936.0 5772.0 5686.0 5866.0\n6678.0 5882.0 5920.0 5774.0 5690.0 5858.0\n6654.0 5886.0 5922.0 5780.0 5694.0 5858.0\n6670.0 5878.0 5924.0 5772.0 5684.0 5866.0\n6668.0 5884.0 5932.0 5770.0 5690.0 5860.0\n6666.0 5886.0 5934.0 5778.0 5698.0 5870.0\n6664.0 5884.0 5930.0 5776.0 5688.0 5866.0\n6670.0 5880.0 5928.0 5778.0 5680.0 5868.0\n6666.0 5876.0 5938.0 5774.0 5686.0 5854.0\n6664.0 5872.0 5934.0 5778.0 5692.0 5868.0\n6662.0 5884.0 5930.0 5766.0 5696.0 5870.0\n6668.0 5882.0 5930.0 5772.0 5686.0 5866.0\n6670.0 5884.0 5930.0 5786.0 5682.0 5862.0\n6668.0 5880.0 5912.0 5788.0 5686.0 5868.0\n6652.0 5876.0 5932.0 5776.0 5688.0 5866.0\n6662.0 5886.0 5934.0 5796.0 5686.0 5866.0\n6668.0 5884.0 5938.0 5782.0 5694.0 5866.0\n6664.0 5870.0 5928.0 5784.0 5694.0 5880.0\n6658.0 5880.0 5930.0 5774.0 5696.0 5866.0\n6670.0 5880.0 5934.0 5780.0 5690.0 5868.0\n6670.0 5892.0 5926.0 5774.0 5700.0 5866.0\n6672.0 5868.0 5922.0 5772.0 5690.0 5866.0\n6670.0 5882.0 5926.0 5782.0 5688.0 5862.0\n6670.0 5872.0 5926.0 5774.0 5692.0 5858.0\n6666.0 5874.0 5926.0 5770.0 5694.0 5858.0\n6670.0 5882.0 5930.0 5778.0 5686.0 5868.0\n6672.0 5886.0 5940.0 5776.0 5692.0 5862.0\n6662.0 5876.0 5944.0 5774.0 5686.0 5860.0\n6670.0 5894.0 5928.0 5780.0 5690.0 5870.0\n6658.0 5880.0 5930.0 5788.0 5690.0 5866.0\n6674.0 5878.0 5930.0 5778.0 5686.0 5864.0\n6682.0 5878.0 5930.0 5796.0 5692.0 5858.0\n6688.0 5880.0 5938.0 5778.0 5692.0 5862.0\n6712.0 5864.0 5942.0 5790.0 5692.0 5862.0\n6722.0 5876.0 5954.0 5790.0 5700.0 5856.0\n6684.0 5870.0 5936.0 5786.0 5682.0 5862.0\n6666.0 5846.0 5936.0 5784.0 5696.0 5858.0\n6660.0 5860.0 5928.0 5774.0 5696.0 5860.0\n6684.0 5868.0 5920.0 5772.0 5688.0 5868.0\n6694.0 5872.0 5920.0 5782.0 5690.0 5862.0\n6734.0 5874.0 5928.0 5752.0 5678.0 5864.0\n6718.0 5882.0 5920.0 5764.0 5690.0 5862.0\n6724.0 5880.0 5938.0 5770.0 5690.0 5862.0\n6746.0 5894.0 5954.0 5756.0 5696.0 5866.0\n6742.0 5894.0 5954.0 5766.0 5688.0 5860.0\n6674.0 5864.0 5948.0 5770.0 5688.0 5858.0\n6684.0 5866.0 5944.0 5758.0 5688.0 5866.0\n6680.0 5870.0 5950.0 5774.0 5688.0 5862.0\n6682.0 5874.0 5942.0 5768.0 5686.0 5858.0\n6680.0 5876.0 5950.0 5766.0 5690.0 5868.0\n6660.0 5870.0 5930.0 5762.0 5694.0 5860.0\n6650.0 5870.0 5930.0 5766.0 5694.0 5860.0\n6640.0 5872.0 5936.0 5766.0 5696.0 5862.0\n6626.0 5870.0 5936.0 5768.0 5690.0 5860.0\n6634.0 5878.0 5922.0 5758.0 5684.0 5842.0\n6622.0 5880.0 5942.0 5772.0 5686.0 5866.0\n6644.0 5872.0 5944.0 5778.0 5678.0 5860.0\n6630.0 5866.0 5944.0 5774.0 5694.0 5854.0\n6632.0 5878.0 5946.0 5772.0 5688.0 5856.0\n6636.0 5878.0 5950.0 5766.0 5692.0 5858.0\n6640.0 5872.0 5948.0 5774.0 5694.0 5860.0\n6648.0 5864.0 5938.0 5782.0 5684.0 5862.0\n6658.0 5874.0 5946.0 5776.0 5690.0 5866.0\n6652.0 5874.0 5942.0 5766.0 5690.0 5862.0\n6686.0 5874.0 5936.0 5768.0 5684.0 5858.0\n6652.0 5876.0 5932.0 5774.0 5688.0 5864.0\n6644.0 5880.0 5916.0 5764.0 5688.0 5858.0\n6650.0 5874.0 5926.0 5760.0 5686.0 5858.0\n6632.0 5880.0 5924.0 5772.0 5684.0 5866.0\n6638.0 5882.0 5918.0 5770.0 5688.0 5858.0\n6644.0 5880.0 5924.0 5766.0 5686.0 5866.0\n6626.0 5872.0 5910.0 5774.0 5682.0 5860.0\n6612.0 5880.0 5914.0 5768.0 5674.0 5866.0\n6610.0 5882.0 5912.0 5770.0 5686.0 5856.0\n6620.0 5878.0 5918.0 5774.0 5678.0 5860.0\n6614.0 5874.0 5928.0 5778.0 5690.0 5860.0\n6612.0 5920.0 5932.0 5780.0 5678.0 5858.0\n6624.0 5884.0 5930.0 5766.0 5694.0 5866.0\n6648.0 5870.0 5932.0 5764.0 5692.0 5870.0\n6664.0 5872.0 5936.0 5778.0 5690.0 5866.0\n6660.0 5874.0 5920.0 5786.0 5688.0 5864.0\n6668.0 5866.0 5928.0 5776.0 5694.0 5858.0\n6652.0 5882.0 5924.0 5770.0 5692.0 5868.0\n6662.0 5880.0 5930.0 5780.0 5686.0 5864.0\n6664.0 5882.0 5918.0 5772.0 5676.0 5858.0\n6672.0 5880.0 5928.0 5782.0 5690.0 5862.0\n6672.0 5876.0 5932.0 5766.0 5690.0 5864.0\n6678.0 5876.0 5924.0 5774.0 5684.0 5862.0\n6672.0 5876.0 5918.0 5778.0 5686.0 5864.0\n6680.0 5882.0 5926.0 5780.0 5696.0 5858.0\n6680.0 5886.0 5922.0 5782.0 5684.0 5870.0\n6674.0 5870.0 5928.0 5770.0 5690.0 5860.0\n6670.0 5858.0 5926.0 5774.0 5680.0 5864.0\n6678.0 5870.0 5932.0 5786.0 5694.0 5866.0\n6678.0 5880.0 5940.0 5768.0 5696.0 5860.0\n6684.0 5878.0 5928.0 5776.0 5694.0 5868.0\n6678.0 5886.0 5932.0 5792.0 5692.0 5868.0\n6678.0 5878.0 5924.0 5780.0 5686.0 5866.0\n6682.0 5874.0 5926.0 5774.0 5690.0 5866.0\n6670.0 5878.0 5926.0 5772.0 5688.0 5860.0\n6678.0 5884.0 5916.0 5770.0 5700.0 5860.0\n6684.0 5870.0 5930.0 5774.0 5688.0 5866.0\n6682.0 5878.0 5928.0 5776.0 5692.0 5864.0\n6672.0 5878.0 5930.0 5780.0 5694.0 5862.0\n6672.0 5886.0 5932.0 5780.0 5690.0 5870.0\n6680.0 5878.0 5924.0 5782.0 5696.0 5856.0\n6680.0 5878.0 5932.0 5782.0 5690.0 5862.0\n6684.0 5882.0 5932.0 5780.0 5688.0 5866.0\n6684.0 5878.0 5924.0 5776.0 5692.0 5868.0\n6662.0 5862.0 5924.0 5774.0 5684.0 5866.0\n6676.0 5882.0 5924.0 5768.0 5692.0 5862.0\n6668.0 5882.0 5924.0 5774.0 5686.0 5872.0\n6676.0 5880.0 5928.0 5778.0 5694.0 5860.0\n6672.0 5874.0 5930.0 5774.0 5692.0 5870.0\n6678.0 5880.0 5924.0 5786.0 5684.0 5854.0\n6682.0 5878.0 5918.0 5788.0 5682.0 5870.0\n6658.0 5854.0 5936.0 5778.0 5690.0 5866.0\n6670.0 5886.0 5938.0 5774.0 5694.0 5874.0\n6640.0 5880.0 5928.0 5784.0 5694.0 5862.0\n6682.0 5886.0 5926.0 5774.0 5686.0 5864.0\n6674.0 5870.0 5922.0 5776.0 5684.0 5870.0\n6670.0 5876.0 5932.0 5786.0 5686.0 5866.0\n6664.0 5878.0 5924.0 5780.0 5694.0 5866.0\n6666.0 5880.0 5930.0 5776.0 5688.0 5862.0\n6666.0 5886.0 5934.0 5778.0 5680.0 5858.0\n6670.0 5874.0 5920.0 5772.0 5686.0 5864.0\n6672.0 5878.0 5922.0 5778.0 5692.0 5864.0\n6674.0 5886.0 5932.0 5778.0 5696.0 5868.0\n6666.0 5880.0 5924.0 5766.0 5696.0 5864.0\n6664.0 5884.0 5922.0 5774.0 5690.0 5866.0\n6674.0 5870.0 5926.0 5776.0 5698.0 5868.0\n6666.0 5884.0 5926.0 5788.0 5688.0 5862.0\n6674.0 5890.0 5932.0 5774.0 5690.0 5872.0\n6666.0 5888.0 5934.0 5774.0 5690.0 5866.0\n6668.0 5888.0 5930.0 5776.0 5694.0 5872.0\n6668.0 5882.0 5918.0 5782.0 5694.0 5866.0\n6668.0 5880.0 5928.0 5766.0 5690.0 5868.0\n6668.0 5878.0 5920.0 5774.0 5684.0 5854.0\n6668.0 5884.0 5932.0 5780.0 5688.0 5866.0\n6672.0 5886.0 5926.0 5774.0 5696.0 5862.0\n6670.0 5882.0 5924.0 5782.0 5688.0 5866.0\n6670.0 5882.0 5932.0 5776.0 5674.0 5866.0\n6664.0 5882.0 5934.0 5778.0 5690.0 5868.0\n6676.0 5878.0 5918.0 5770.0 5690.0 5872.0\n6660.0 5884.0 5924.0 5766.0 5682.0 5866.0\n6674.0 5870.0 5918.0 5782.0 5686.0 5862.0\n6674.0 5880.0 5924.0 5780.0 5694.0 5864.0\n6664.0 5876.0 5922.0 5772.0 5680.0 5862.0\n6666.0 5880.0 5928.0 5786.0 5694.0 5864.0\n6666.0 5882.0 5932.0 5774.0 5694.0 5866.0\n6660.0 5880.0 5930.0 5784.0 5696.0 5852.0\n6672.0 5876.0 5916.0 5772.0 5692.0 5866.0\n6672.0 5880.0 5912.0 5776.0 5698.0 5864.0\n6664.0 5872.0 5926.0 5774.0 5692.0 5866.0\n6668.0 5880.0 5922.0 5782.0 5688.0 5868.0\n6662.0 5884.0 5930.0 5770.0 5682.0 5866.0\n6668.0 5884.0 5926.0 5778.0 5688.0 5866.0\n6660.0 5882.0 5916.0 5776.0 5688.0 5862.0\n6670.0 5890.0 5934.0 5776.0 5688.0 5862.0\n6666.0 5874.0 5928.0 5774.0 5692.0 5858.0\n6668.0 5866.0 5920.0 5772.0 5694.0 5862.0\n6670.0 5884.0 5922.0 5772.0 5688.0 5864.0\n6666.0 5876.0 5924.0 5794.0 5684.0 5866.0\n6660.0 5886.0 5930.0 5774.0 5692.0 5872.0\n6664.0 5880.0 5934.0 5770.0 5692.0 5866.0\n6664.0 5886.0 5934.0 5762.0 5686.0 5868.0\n6674.0 5886.0 5922.0 5776.0 5686.0 5874.0\n6674.0 5876.0 5934.0 5770.0 5692.0 5864.0\n6670.0 5876.0 5932.0 5772.0 5688.0 5868.0\n6666.0 5880.0 5922.0 5778.0 5688.0 5864.0\n6666.0 5880.0 5930.0 5774.0 5690.0 5866.0\n6666.0 5882.0 5930.0 5786.0 5690.0 5868.0\n6662.0 5878.0 5922.0 5778.0 5696.0 5868.0\n6666.0 5882.0 5926.0 5776.0 5690.0 5858.0\n6646.0 5882.0 5932.0 5774.0 5682.0 5868.0\n6658.0 5876.0 5912.0 5788.0 5690.0 5856.0\n6652.0 5882.0 5924.0 5776.0 5698.0 5856.0\n6666.0 5882.0 5926.0 5774.0 5690.0 5872.0\n6670.0 5876.0 5938.0 5770.0 5694.0 5872.0\n6670.0 5876.0 5922.0 5766.0 5692.0 5868.0\n6664.0 5886.0 5926.0 5780.0 5696.0 5864.0\n6666.0 5884.0 5946.0 5778.0 5696.0 5868.0\n6670.0 5884.0 5930.0 5772.0 5688.0 5862.0\n6664.0 5880.0 5924.0 5768.0 5692.0 5868.0\n6662.0 5882.0 5926.0 5782.0 5690.0 5866.0\n6670.0 5880.0 5928.0 5780.0 5688.0 5868.0\n6674.0 5890.0 5934.0 5772.0 5686.0 5874.0\n6662.0 5878.0 5932.0 5782.0 5692.0 5874.0\n6666.0 5880.0 5934.0 5770.0 5682.0 5868.0\n6670.0 5878.0 5912.0 5786.0 5686.0 5862.0\n6676.0 5888.0 5928.0 5782.0 5700.0 5862.0\n6668.0 5876.0 5934.0 5774.0 5690.0 5868.0\n6674.0 5882.0 5926.0 5772.0 5690.0 5858.0\n6668.0 5876.0 5930.0 5778.0 5692.0 5864.0\n6672.0 5886.0 5940.0 5774.0 5692.0 5862.0\n6668.0 5878.0 5930.0 5764.0 5692.0 5862.0\n6664.0 5876.0 5928.0 5768.0 5692.0 5860.0\n6670.0 5876.0 5922.0 5778.0 5682.0 5866.0\n6670.0 5868.0 5932.0 5776.0 5694.0 5862.0\n6664.0 5886.0 5924.0 5772.0 5694.0 5856.0\n6666.0 5878.0 5914.0 5790.0 5684.0 5878.0\n6668.0 5878.0 5924.0 5774.0 5690.0 5860.0\n6670.0 5878.0 5930.0 5778.0 5688.0 5862.0\n6654.0 5876.0 5932.0 5774.0 5690.0 5862.0\n6654.0 5880.0 5934.0 5780.0 5698.0 5864.0\n6668.0 5876.0 5928.0 5784.0 5686.0 5858.0\n6668.0 5866.0 5922.0 5784.0 5690.0 5868.0\n6672.0 5876.0 5936.0 5772.0 5690.0 5866.0\n6668.0 5884.0 5930.0 5782.0 5690.0 5862.0\n6652.0 5886.0 5930.0 5770.0 5686.0 5868.0\n6672.0 5882.0 5922.0 5770.0 5688.0 5858.0\n6670.0 5884.0 5926.0 5770.0 5680.0 5862.0\n6668.0 5878.0 5932.0 5778.0 5692.0 5860.0\n6674.0 5880.0 5930.0 5778.0 5696.0 5862.0\n6668.0 5880.0 5926.0 5778.0 5686.0 5868.0\n6670.0 5878.0 5926.0 5770.0 5692.0 5856.0\n6668.0 5874.0 5932.0 5768.0 5698.0 5880.0\n6666.0 5874.0 5936.0 5774.0 5694.0 5864.0\n6670.0 5884.0 5934.0 5778.0 5672.0 5864.0\n6680.0 5878.0 5936.0 5778.0 5686.0 5868.0\n6666.0 5878.0 5936.0 5786.0 5698.0 5872.0\n6670.0 5892.0 5936.0 5778.0 5694.0 5856.0\n6666.0 5876.0 5930.0 5778.0 5692.0 5868.0\n6670.0 5878.0 5934.0 5780.0 5688.0 5870.0\n6654.0 5878.0 5934.0 5778.0 5684.0 5862.0\n6670.0 5876.0 5914.0 5778.0 5692.0 5858.0\n6666.0 5878.0 5936.0 5780.0 5692.0 5858.0\n6670.0 5882.0 5930.0 5786.0 5686.0 5868.0\n6668.0 5870.0 5924.0 5776.0 5690.0 5864.0\n6670.0 5876.0 5926.0 5780.0 5680.0 5874.0\n6652.0 5878.0 5930.0 5778.0 5690.0 5868.0\n6672.0 5874.0 5926.0 5784.0 5696.0 5862.0\n