6712.0 5914.0 5934.0 5802.0 5698.0 5860.0\n6710.0 5904.0 5926.0 5798.0 5708.0 5870.0\n6716.0 5904.0 5946.0 5790.0 5706.0 5856.0\n6726.0 5904.0 5942.0 5792.0 5710.0 5862.0\n6726.0 5912.0 5938.0 5792.0 5694.0 5856.0\n6730.0 5910.0 5942.0 5796.0 5708.0 5854.0\n6718.0 5914.0 5950.0 5792.0 5704.0 5858.0\n6726.0 5912.0 5936.0 5796.0 5704.0 5856.0\n6726.0 5912.0 5938.0 5784.0 5696.0 5854.0\n6734.0 5904.0 5946.0 5794.0 5704.0 5860.0\n6718.0 5910.0 5930.0 5786.0 5698.0 5856.0\n6726.0 5912.0 5934.0 5796.0 5708.0 5864.0\n6740.0 5904.0 5934.0 5790.0 5704.0 5858.0\n6740.0 5908.0 5944.0 5794.0 5704.0 5862.0\n6734.0 5906.0 5940.0 5792.0 5696.0 5868.0\n6734.0 5906.0 5938.0 5782.0 5706.0 5866.0\n6740.0 5908.0 5940.0 5798.0 5708.0 5862.0\n6732.0 5908.0 5942.0 5794.0 5700.0 5860.0\n6746.0 5910.0 5942.0 5798.0 5698.0 5868.0\n6756.0 5900.0 5942.0 5788.0 5706.0 5868.0\n6756.0 5916.0 5954.0 5802.0 5712.0 5862.0\n6756.0 5926.0 5946.0 5790.0 5702.0 5860.0\n6762.0 5912.0 5948.0 5804.0 5702.0 5864.0\n6772.0 5904.0 5938.0 5802.0 5710.0 5860.0\n6758.0 5910.0 5948.0 5798.0 5712.0 5870.0\n6768.0 5910.0 5948.0 5808.0 5710.0 5868.0\n6782.0 5914.0 5956.0 5796.0 5710.0 5862.0\n6804.0 5914.0 5950.0 5802.0 5716.0 5868.0\n6812.0 5914.0 5958.0 5814.0 5716.0 5866.0\n6816.0 5916.0 5948.0 5816.0 5718.0 5872.0\n6834.0 5916.0 5952.0 5812.0 5716.0 5874.0\n6838.0 5916.0 5952.0 5814.0 5724.0 5870.0\n6848.0 5912.0 5952.0 5806.0 5734.0 5866.0\n6866.0 5912.0 5958.0 5818.0 5724.0 5866.0\n6878.0 5918.0 5962.0 5816.0 5734.0 5868.0\n6908.0 5922.0 5960.0 5812.0 5734.0 5858.0\n6922.0 5918.0 5966.0 5838.0 5740.0 5874.0\n6920.0 5922.0 5972.0 5846.0 5746.0 5856.0\n6972.0 5930.0 5990.0 5864.0 5766.0 5878.0\n6972.0 5924.0 5984.0 5874.0 5770.0 5870.0\n6988.0 5924.0 6004.0 5906.0 5782.0 5866.0\n7002.0 5928.0 5996.0 5934.0 5794.0 5878.0\n7024.0 5928.0 5998.0 5950.0 5806.0 5872.0\n7040.0 5924.0 6008.0 5962.0 5806.0 5882.0\n7074.0 5924.0 6026.0 5986.0 5824.0 5868.0\n7094.0 5932.0 6028.0 6016.0 5838.0 5872.0\n7126.0 5944.0 6028.0 6024.0 5830.0 5880.0\n7162.0 5942.0 6044.0 6058.0 5868.0 5880.0\n7186.0 5936.0 6062.0 6114.0 5892.0 5880.0\n7242.0 5944.0 6054.0 6174.0 5924.0 5884.0\n7314.0 5958.0 6090.0 6276.0 5974.0 5878.0\n7336.0 5942.0 6084.0 6304.0 5996.0 5880.0\n7348.0 5956.0 6100.0 6390.0 6030.0 5878.0\n7364.0 5960.0 6100.0 6428.0 6070.0 5880.0\n7382.0 5960.0 6110.0 6468.0 6112.0 5884.0\n7402.0 5974.0 6112.0 6514.0 6156.0 5866.0\n7442.0 5972.0 6120.0 6564.0 6212.0 5876.0\n7434.0 5984.0 6116.0 6606.0 6232.0 5878.0\n7486.0 5988.0 6126.0 6636.0 6264.0 5880.0\n7496.0 6004.0 6134.0 6654.0 6284.0 5874.0\n7488.0 5994.0 6122.0 6684.0 6318.0 5884.0\n7504.0 5998.0 6130.0 6690.0 6324.0 5872.0\n7500.0 6008.0 6142.0 6714.0 6352.0 5890.0\n7502.0 5998.0 6136.0 6706.0 6356.0 5878.0\n7506.0 6014.0 6138.0 6708.0 6354.0 5888.0\n7492.0 5996.0 6136.0 6696.0 6342.0 5884.0\n7484.0 6006.0 6140.0 6702.0 6340.0 5884.0\n7484.0 5998.0 6130.0 6700.0 6324.0 5886.0\n7480.0 5998.0 6130.0 6682.0 6328.0 5876.0\n7474.0 5998.0 6126.0 6688.0 6318.0 5878.0\n7480.0 5982.0 6112.0 6674.0 6316.0 5874.0\n7464.0 5984.0 6114.0 6670.0 6282.0 5878.0\n7462.0 5970.0 6136.0 6600.0 6244.0 5866.0\n7458.0 6002.0 6122.0 6566.0 6236.0 5874.0\n7452.0 5966.0 6116.0 6502.0 6212.0 5866.0\n7444.0 5968.0 6110.0 6464.0 6178.0 5878.0\n7444.0 5960.0 6106.0 6428.0 6154.0 5874.0\n7442.0 5960.0 6098.0 6376.0 6132.0 5880.0\n7382.0 5966.0 6098.0 6338.0 6094.0 5858.0\n7368.0 5960.0 6098.0 6294.0 6068.0 5868.0\n7306.0 5954.0 6084.0 6232.0 6030.0 5868.0\n7258.0 5938.0 6048.0 6126.0 5958.0 5868.0\n7194.0 5936.0 6044.0 6104.0 5946.0 5870.0\n7156.0 5922.0 6034.0 6046.0 5890.0 5862.0\n7118.0 5914.0 6020.0 6012.0 5866.0 5860.0\n7068.0 5924.0 6016.0 5972.0 5824.0 5862.0\n7016.0 5924.0 6006.0 5940.0 5798.0 5864.0\n6994.0 5922.0 5994.0 5918.0 5780.0 5866.0\n6952.0 5920.0 5986.0 5900.0 5776.0 5862.0\n6918.0 5930.0 5980.0 5882.0 5752.0 5860.0\n6900.0 5916.0 5972.0 5868.0 5746.0 5850.0\n6860.0 5918.0 5962.0 5846.0 5736.0 5880.0\n6858.0 5908.0 5974.0 5836.0 5730.0 5866.0\n6860.0 5906.0 5974.0 5830.0 5726.0 5872.0\n6840.0 5908.0 5970.0 5826.0 5722.0 5858.0\n6828.0 5910.0 5972.0 5824.0 5708.0 5862.0\n6822.0 5912.0 5964.0 5818.0 5714.0 5862.0\n6820.0 5912.0 5962.0 5812.0 5718.0 5866.0\n6816.0 5918.0 5964.0 5822.0 5718.0 5864.0\n6818.0 5916.0 5960.0 5828.0 5714.0 5870.0\n6818.0 5916.0 5956.0 5828.0 5718.0 5858.0\n6820.0 5916.0 5966.0 5810.0 5710.0 5868.0\n6814.0 5910.0 5960.0 5816.0 5716.0 5870.0\n6806.0 5916.0 5954.0 5820.0 5708.0 5866.0\n6790.0 5912.0 5962.0 5820.0 5704.0 5870.0\n6804.0 5910.0 5954.0 5820.0 5704.0 5864.0\n6788.0 5914.0 5960.0 5804.0 5708.0 5866.0\n6792.0 5910.0 5950.0 5808.0 5710.0 5874.0\n6782.0 5924.0 5954.0 5816.0 5710.0 5868.0\n6794.0 5916.0 5954.0 5804.0 5710.0 5866.0\n6790.0 5906.0 5954.0 5808.0 5708.0 5858.0\n6786.0 5912.0 5950.0 5802.0 5708.0 5864.0\n6786.0 5922.0 5946.0 5804.0 5700.0 5868.0\n6788.0 5910.0 5954.0 5822.0 5706.0 5872.0\n6792.0 5908.0 5946.0 5818.0 5696.0 5860.0\n6782.0 5916.0 5946.0 5808.0 5704.0 5868.0\n6790.0 5920.0 5944.0 5804.0 5698.0 5860.0\n6786.0 5906.0 5934.0 5800.0 5708.0 5864.0\n6786.0 5912.0 5944.0 5808.0 5698.0 5866.0\n6790.0 5904.0 5956.0 5812.0 5712.0 5858.0\n6790.0 5910.0 5946.0 5800.0 5702.0 5860.0\n6788.0 5902.0 5948.0 5808.0 5706.0 5868.0\n6776.0 5910.0 5942.0 5806.0 5710.0 5854.0\n6782.0 5906.0 5948.0 5806.0 5708.0 5864.0\n6786.0 5910.0 5946.0 5810.0 5708.0 5868.0\n6776.0 5920.0 5952.0 5810.0 5700.0 5858.0\n6776.0 5914.0 5944.0 5798.0 5708.0 5854.0\n6770.0 5912.0 5952.0 5808.0 5708.0 5860.0\n6758.0 5904.0 5950.0 5798.0 5698.0 5874.0\n6776.0 5914.0 5948.0 5808.0 5702.0 5860.0\n6772.0 5910.0 5946.0 5806.0 5698.0 5866.0\n6758.0 5908.0 5950.0 5808.0 5700.0 5862.0\n6762.0 5910.0 5950.0 5806.0 5706.0 5864.0\n6766.0 5918.0 5942.0 5810.0 5704.0 5874.0\n6764.0 5916.0 5940.0 5806.0 5700.0 5868.0\n6750.0 5908.0 5948.0 5802.0 5704.0 5860.0\n6754.0 5910.0 5946.0 5808.0 5700.0 5866.0\n6750.0 5914.0 5946.0 5832.0 5710.0 5862.0\n6756.0 5908.0 5946.0 5802.0 5696.0 5874.0\n6752.0 5916.0 5948.0 5800.0 5704.0 5864.0\n6746.0 5914.0 5946.0 5806.0 5704.0 5866.0\n6746.0 5910.0 5940.0 5804.0 5686.0 5862.0\n6740.0 5912.0 5948.0 5810.0 5712.0 5860.0\n6748.0 5904.0 5934.0 5808.0 5702.0 5870.0\n6748.0 5906.0 5954.0 5802.0 5710.0 5860.0\n6760.0 5908.0 5946.0 5796.0 5694.0 5862.0\n6754.0 5914.0 5944.0 5802.0 5698.0 5864.0\n6756.0 5910.0 5946.0 5802.0 5700.0 5866.0\n6746.0 5918.0 5948.0 5808.0 5702.0 5870.0\n6756.0 5912.0 5932.0 5808.0 5700.0 5864.0\n6746.0 5912.0 5954.0 5808.0 5700.0 5860.0\n6750.0 5906.0 5948.0 5810.0 5696.0 5872.0\n6754.0 5902.0 5944.0 5802.0 5696.0 5870.0\n6748.0 5922.0 5960.0 5814.0 5702.0 5866.0\n6750.0 5910.0 5950.0 5802.0 5696.0 5860.0\n6758.0 5918.0 5948.0 5810.0 5696.0 5862.0\n6754.0 5918.0 5946.0 5810.0 5700.0 5878.0\n6760.0 5912.0 5952.0 5796.0 5702.0 5868.0\n6760.0 5912.0 5950.0 5800.0 5710.0 5862.0\n6744.0 5904.0 5944.0 5810.0 5706.0 5858.0\n6754.0 5916.0 5954.0 5798.0 5706.0 5862.0\n6754.0 5902.0 5954.0 5808.0 5706.0 5866.0\n6742.0 5918.0 5952.0 5804.0 5702.0 5854.0\n6750.0 5912.0 5942.0 5810.0 5696.0 5862.0\n6742.0 5914.0 5954.0 5808.0 5708.0 5862.0\n6734.0 5922.0 5940.0 5804.0 5706.0 5866.0\n6756.0 5918.0 5942.0 5796.0 5708.0 5858.0\n6748.0 5914.0 5942.0 5806.0 5698.0 5872.0\n6744.0 5918.0 5958.0 5812.0 5696.0 5864.0\n6750.0 5918.0 5952.0 5798.0 5698.0 5866.0\n6762.0 5918.0 5942.0 5804.0 5704.0 5866.0\n6758.0 5914.0 5946.0 5802.0 5704.0 5862.0\n6752.0 5906.0 5942.0 5802.0 5708.0 5868.0\n6760.0 5916.0 5956.0 5798.0 5702.0 5862.0\n6764.0 5916.0 5942.0 5816.0 5696.0 5864.0\n6754.0 5920.0 5948.0 5794.0 5706.0 5860.0\n6758.0 5916.0 5952.0 5798.0 5706.0 5860.0\n6762.0 5914.0 5952.0 5808.0 5700.0 5876.0\n6758.0 5908.0 5950.0 5798.0 5704.0 5860.0\n6750.0 5916.0 5958.0 5804.0 5708.0 5870.0\n6760.0 5910.0 5948.0 5802.0 5702.0 5866.0\n6750.0 5910.0 5946.0 5806.0 5706.0 5862.0\n6756.0 5916.0 5954.0 5798.0 5706.0 5860.0\n6756.0 5910.0 5952.0 5806.0 5704.0 5860.0\n6756.0 5912.0 5956.0 5804.0 5704.0 5864.0\n6750.0 5916.0 5946.0 5800.0 5708.0 5866.0\n6756.0 5912.0 5952.0 5796.0 5700.0 5870.0\n6760.0 5906.0 5954.0 5798.0 5706.0 5868.0\n6760.0 5908.0 5950.0 5798.0 5702.0 5868.0\n6758.0 5912.0 5950.0 5810.0 5700.0 5870.0\n6756.0 5914.0 5942.0 5798.0 5704.0 5864.0\n6752.0 5908.0 5950.0 5802.0 5704.0 5870.0\n6752.0 5898.0 5948.0 5806.0 5700.0 5866.0\n6768.0 5914.0 5946.0 5812.0 5714.0 5868.0\n6762.0 5916.0 5946.0 5806.0 5700.0 5862.0\n6754.0 5906.0 5950.0 5814.0 5700.0 5872.0\n6754.0 5910.0 5944.0 5780.0 5706.0 5856.0\n6760.0 5912.0 5946.0 5796.0 5712.0 5866.0\n6762.0 5916.0 5944.0 5806.0 5704.0 5874.0\n6756.0 5910.0 5946.0 5810.0 5708.0 5874.0\n6760.0 5906.0 5954.0 5798.0 5706.0 5860.0\n6756.0 5916.0 5950.0 5806.0 5698.0 5874.0\n6754.0 5904.0 5956.0 5810.0 5698.0 5858.0\n6756.0 5908.0 5950.0 5800.0 5704.0 5862.0\n6746.0 5920.0 5956.0 5810.0 5694.0 5858.0\n6748.0 5916.0 5948.0 5810.0 5712.0 5872.0\n6760.0 5916.0 5940.0 5788.0 5710.0 5858.0\n6752.0 5910.0 5950.0 5800.0 5700.0 5868.0\n6750.0 5914.0 5948.0 5792.0 5696.0 5866.0\n6754.0 5906.0 5950.0 5802.0 5706.0 5864.0\n6750.0 5914.0 5946.0 5810.0 5704.0 5864.0\n6756.0 5908.0 5950.0 5800.0 5702.0 5862.0\n6760.0 5910.0 5940.0 5802.0 5700.0 5866.0\n6748.0 5924.0 5952.0 5814.0 5708.0 5856.0\n6752.0 5908.0 5952.0 5806.0 5692.0 5870.0\n6750.0 5908.0 5944.0 5800.0 5700.0 5866.0\n6760.0 5912.0 5956.0 5802.0 5706.0 5866.0\n6756.0 5916.0 5950.0 5804.0 5704.0 5860.0\n6758.0 5916.0 5944.0 5792.0 5708.0 5854.0\n6758.0 5914.0 5944.0 5806.0 5710.0 5868.0\n6752.0 5914.0 5944.0 5804.0 5710.0 5866.0\n6758.0 5906.0 5950.0 5798.0 5700.0 5852.0\n6758.0 5908.0 5942.0 5796.0 5702.0 5864.0\n6750.0 5908.0 5948.0 5810.0 5700.0 5860.0\n6752.0 5910.0 5952.0 5806.0 5704.0 5868.0\n6758.0 5916.0 5946.0 5794.0 5704.0 5870.0\n6754.0 5912.0 5958.0 5802.0 5704.0 5854.0\n6750.0 5920.0 5944.0 5802.0 5708.0 5868.0\n6752.0 5918.0 5950.0 5800.0 5702.0 5872.0\n6752.0 5914.0 5944.0 5800.0 5698.0 5864.0\n6754.0 5908.0 5960.0 5818.0 5702.0 5860.0\n6746.0 5910.0 5948.0 5796.0 5702.0 5870.0\n6754.0 5904.0 5950.0 5796.0 5700.0 5868.0\n6754.0 5908.0 5946.0 5802.0 5692.0 5862.0\n6750.0 5912.0 5948.0 5798.0 5710.0 5870.0\n6758.0 5914.0 5946.0 5814.0 5704.0 5864.0\n6752.0 5908.0 5948.0 5806.0 5700.0 5864.0\n6748.0 5910.0 5950.0 5796.0 5694.0 5858.0\n6746.0 5904.0 5942.0 5802.0 5704.0 5862.0\n6752.0 5908.0 5948.0 5798.0 5702.0 5864.0\n6752.0 5906.0 5948.0 5806.0 5702.0 5868.0\n6758.0 5910.0 5948.0 5800.0 5698.0 5864.0\n6756.0 5900.0 5940.0 5810.0 5696.0 5864.0\n6756.0 5914.0 5942.0 5802.0 5704.0 5858.0\n6748.0 5906.0 5954.0 5808.0 5702.0 5864.0\n6756.0 5894.0 5944.0 5806.0 5708.0 5860.0\n6756.0 5894.0 5948.0 5798.0 5702.0 5864.0\n6756.0 5920.0 5950.0 5806.0 5694.0 5860.0\n6762.0 5916.0 5946.0 5808.0 5700.0 5872.0\n