6750.0 5916.0 5950.0 5808.0 5710.0 5864.0\n6736.0 5904.0 5954.0 5796.0 5704.0 5856.0\n6748.0 5904.0 5952.0 5804.0 5708.0 5862.0\n6738.0 5916.0 5952.0 5796.0 5702.0 5876.0\n6748.0 5916.0 5950.0 5800.0 5706.0 5866.0\n6744.0 5908.0 5956.0 5808.0 5708.0 5866.0\n6744.0 5910.0 5960.0 5800.0 5702.0 5866.0\n6734.0 5916.0 5944.0 5802.0 5694.0 5862.0\n6742.0 5914.0 5962.0 5804.0 5712.0 5866.0\n6748.0 5918.0 5954.0 5806.0 5702.0 5860.0\n6744.0 5926.0 5950.0 5812.0 5706.0 5874.0\n6736.0 5906.0 5950.0 5806.0 5702.0 5872.0\n6744.0 5918.0 5956.0 5792.0 5702.0 5856.0\n6742.0 5916.0 5950.0 5796.0 5702.0 5864.0\n6734.0 5914.0 5960.0 5804.0 5700.0 5866.0\n6746.0 5902.0 5960.0 5806.0 5700.0 5868.0\n6746.0 5910.0 5956.0 5790.0 5704.0 5864.0\n6748.0 5920.0 5948.0 5792.0 5702.0 5870.0\n6746.0 5916.0 5950.0 5804.0 5706.0 5866.0\n6746.0 5918.0 5950.0 5796.0 5700.0 5864.0\n6750.0 5906.0 5950.0 5794.0 5706.0 5864.0\n6744.0 5906.0 5958.0 5812.0 5708.0 5862.0\n6746.0 5916.0 5952.0 5806.0 5706.0 5860.0\n6744.0 5910.0 5954.0 5802.0 5706.0 5868.0\n6742.0 5918.0 5950.0 5802.0 5706.0 5868.0\n6744.0 5918.0 5956.0 5806.0 5698.0 5864.0\n6746.0 5906.0 5956.0 5808.0 5706.0 5864.0\n6738.0 5922.0 5950.0 5804.0 5706.0 5870.0\n6746.0 5914.0 5958.0 5812.0 5700.0 5860.0\n6744.0 5910.0 5962.0 5802.0 5698.0 5860.0\n6748.0 5908.0 5958.0 5802.0 5714.0 5864.0\n6746.0 5912.0 5948.0 5802.0 5698.0 5862.0\n6750.0 5912.0 5948.0 5804.0 5708.0 5860.0\n6750.0 5904.0 5962.0 5806.0 5702.0 5864.0\n6734.0 5922.0 5950.0 5810.0 5704.0 5862.0\n6740.0 5918.0 5956.0 5792.0 5710.0 5868.0\n6742.0 5910.0 5948.0 5806.0 5690.0 5862.0\n6736.0 5904.0 5952.0 5804.0 5700.0 5862.0\n6752.0 5910.0 5950.0 5810.0 5698.0 5860.0\n6748.0 5908.0 5942.0 5790.0 5700.0 5858.0\n6752.0 5914.0 5942.0 5808.0 5702.0 5860.0\n6750.0 5912.0 5950.0 5800.0 5702.0 5864.0\n6758.0 5916.0 5952.0 5810.0 5704.0 5868.0\n6756.0 5912.0 5952.0 5812.0 5702.0 5862.0\n6744.0 5912.0 5950.0 5816.0 5710.0 5858.0\n6776.0 5916.0 5956.0 5812.0 5708.0 5868.0\n6778.0 5918.0 5952.0 5812.0 5710.0 5868.0\n6786.0 5912.0 5954.0 5808.0 5714.0 5872.0\n6798.0 5922.0 5960.0 5816.0 5716.0 5866.0\n6814.0 5916.0 5962.0 5804.0 5708.0 5866.0\n6820.0 5922.0 5952.0 5808.0 5718.0 5868.0\n6828.0 5920.0 5966.0 5812.0 5718.0 5854.0\n6832.0 5920.0 5964.0 5816.0 5722.0 5868.0\n6844.0 5910.0 5956.0 5812.0 5708.0 5864.0\n6856.0 5910.0 5958.0 5810.0 5720.0 5862.0\n6868.0 5920.0 5960.0 5826.0 5722.0 5866.0\n6874.0 5922.0 5968.0 5826.0 5724.0 5864.0\n6906.0 5916.0 5982.0 5818.0 5726.0 5860.0\n6916.0 5924.0 5976.0 5824.0 5738.0 5868.0\n6930.0 5914.0 5976.0 5832.0 5744.0 5868.0\n6964.0 5924.0 5980.0 5850.0 5754.0 5870.0\n6992.0 5920.0 5990.0 5872.0 5770.0 5876.0\n7004.0 5928.0 5992.0 5882.0 5778.0 5880.0\n7046.0 5926.0 6006.0 5924.0 5794.0 5872.0\n7042.0 5924.0 6016.0 5934.0 5806.0 5876.0\n7062.0 5922.0 6020.0 5970.0 5822.0 5876.0\n7076.0 5916.0 6022.0 5990.0 5820.0 5884.0\n7090.0 5924.0 6042.0 6018.0 5838.0 5874.0\n7086.0 5918.0 6040.0 6026.0 5842.0 5876.0\n7144.0 5936.0 6056.0 6052.0 5850.0 5880.0\n7182.0 5930.0 6058.0 6066.0 5860.0 5876.0\n7200.0 5948.0 6062.0 6098.0 5870.0 5882.0\n7244.0 5948.0 6072.0 6132.0 5886.0 5878.0\n7330.0 5936.0 6084.0 6238.0 5938.0 5876.0\n7354.0 5962.0 6100.0 6300.0 5968.0 5874.0\n7362.0 5962.0 6090.0 6372.0 6028.0 5874.0\n7366.0 5966.0 6106.0 6432.0 6066.0 5876.0\n7406.0 5994.0 6108.0 6508.0 6142.0 5882.0\n7444.0 5978.0 6114.0 6558.0 6192.0 5878.0\n7478.0 5974.0 6122.0 6592.0 6222.0 5878.0\n7488.0 5978.0 6122.0 6648.0 6246.0 5874.0\n7484.0 6012.0 6124.0 6698.0 6310.0 5882.0\n7486.0 6014.0 6122.0 6710.0 6320.0 5890.0\n7494.0 6014.0 6124.0 6750.0 6346.0 5880.0\n7496.0 6024.0 6128.0 6758.0 6352.0 5882.0\n7500.0 6018.0 6120.0 6774.0 6360.0 5880.0\n7502.0 6016.0 6126.0 6788.0 6366.0 5886.0\n7516.0 6022.0 6110.0 6796.0 6372.0 5880.0\n7514.0 6022.0 6130.0 6822.0 6386.0 5878.0\n7518.0 6016.0 6128.0 6820.0 6386.0 5886.0\n7518.0 6028.0 6126.0 6832.0 6402.0 5880.0\n7514.0 6022.0 6118.0 6828.0 6404.0 5884.0\n7508.0 6026.0 6124.0 6828.0 6412.0 5878.0\n7518.0 6018.0 6124.0 6816.0 6402.0 5886.0\n7510.0 6016.0 6122.0 6832.0 6402.0 5880.0\n7514.0 6012.0 6128.0 6840.0 6392.0 5882.0\n7512.0 6020.0 6118.0 6830.0 6396.0 5882.0\n7510.0 6024.0 6118.0 6828.0 6390.0 5874.0\n7502.0 6016.0 6124.0 6832.0 6406.0 5882.0\n7496.0 6016.0 6122.0 6834.0 6388.0 5866.0\n7500.0 6014.0 6114.0 6826.0 6390.0 5876.0\n7494.0 6016.0 6114.0 6820.0 6370.0 5882.0\n7492.0 6008.0 6096.0 6724.0 6352.0 5876.0\n7484.0 6006.0 6100.0 6682.0 6332.0 5876.0\n7484.0 6010.0 6120.0 6652.0 6302.0 5872.0\n7472.0 6002.0 6100.0 6542.0 6252.0 5872.0\n7474.0 5998.0 6100.0 6502.0 6246.0 5862.0\n7446.0 5986.0 6090.0 6470.0 6218.0 5874.0\n7434.0 5976.0 6092.0 6470.0 6198.0 5866.0\n7438.0 5974.0 6096.0 6414.0 6168.0 5856.0\n7376.0 5966.0 6080.0 6384.0 6142.0 5864.0\n7366.0 5970.0 6070.0 6332.0 6086.0 5872.0\n7350.0 5966.0 6074.0 6300.0 6060.0 5862.0\n7308.0 5970.0 6064.0 6240.0 6036.0 5866.0\n7272.0 5956.0 6050.0 6184.0 5996.0 5854.0\n7270.0 5950.0 6044.0 6140.0 5962.0 5870.0\n7178.0 5952.0 6016.0 6068.0 5916.0 5856.0\n7138.0 5952.0 6024.0 6050.0 5902.0 5868.0\n7094.0 5954.0 6020.0 6016.0 5878.0 5864.0\n7058.0 5964.0 5986.0 5964.0 5836.0 5874.0\n7026.0 5928.0 5998.0 5948.0 5826.0 5858.0\n6952.0 5934.0 6000.0 5920.0 5802.0 5866.0\n6936.0 5930.0 5992.0 5918.0 5794.0 5860.0\n6898.0 5934.0 5990.0 5894.0 5776.0 5870.0\n6868.0 5922.0 5970.0 5880.0 5766.0 5854.0\n6862.0 5918.0 5978.0 5874.0 5754.0 5860.0\n6850.0 5920.0 5978.0 5856.0 5758.0 5862.0\n6842.0 5928.0 5972.0 5866.0 5752.0 5870.0\n6836.0 5916.0 5970.0 5848.0 5736.0 5866.0\n6836.0 5920.0 5982.0 5834.0 5746.0 5864.0\n6832.0 5922.0 5976.0 5842.0 5738.0 5862.0\n6830.0 5926.0 5970.0 5842.0 5746.0 5860.0\n6834.0 5928.0 5974.0 5838.0 5738.0 5860.0\n6830.0 5924.0 5978.0 5832.0 5744.0 5872.0\n6836.0 5922.0 5972.0 5836.0 5744.0 5866.0\n6816.0 5920.0 5976.0 5842.0 5734.0 5868.0\n6828.0 5928.0 5974.0 5838.0 5742.0 5862.0\n6810.0 5928.0 5972.0 5840.0 5728.0 5862.0\n6814.0 5924.0 5974.0 5826.0 5732.0 5856.0\n6796.0 5934.0 5970.0 5822.0 5736.0 5866.0\n6804.0 5922.0 5960.0 5832.0 5732.0 5866.0\n6808.0 5922.0 5972.0 5826.0 5732.0 5866.0\n6796.0 5922.0 5960.0 5818.0 5722.0 5858.0\n6812.0 5920.0 5972.0 5828.0 5722.0 5860.0\n6804.0 5926.0 5960.0 5824.0 5724.0 5868.0\n6808.0 5934.0 5966.0 5828.0 5732.0 5860.0\n6808.0 5926.0 5966.0 5822.0 5736.0 5866.0\n6802.0 5924.0 5970.0 5828.0 5722.0 5868.0\n6804.0 5916.0 5966.0 5830.0 5728.0 5862.0\n6796.0 5922.0 5966.0 5820.0 5724.0 5866.0\n6802.0 5932.0 5970.0 5826.0 5722.0 5876.0\n6806.0 5926.0 5958.0 5818.0 5718.0 5864.0\n6800.0 5928.0 5968.0 5834.0 5718.0 5866.0\n6806.0 5928.0 5960.0 5822.0 5718.0 5866.0\n6792.0 5924.0 5958.0 5828.0 5718.0 5866.0\n6796.0 5916.0 5958.0 5818.0 5712.0 5860.0\n6804.0 5920.0 5964.0 5820.0 5726.0 5872.0\n6802.0 5918.0 5960.0 5818.0 5722.0 5866.0\n6794.0 5914.0 5962.0 5824.0 5722.0 5872.0\n6790.0 5922.0 5966.0 5826.0 5722.0 5876.0\n6782.0 5922.0 5956.0 5824.0 5720.0 5862.0\n6786.0 5926.0 5966.0 5816.0 5720.0 5866.0\n6786.0 5918.0 5950.0 5824.0 5716.0 5866.0\n6786.0 5928.0 5956.0 5828.0 5718.0 5866.0\n6788.0 5920.0 5954.0 5824.0 5714.0 5858.0\n6782.0 5932.0 5970.0 5818.0 5700.0 5852.0\n6788.0 5918.0 5976.0 5814.0 5724.0 5862.0\n6794.0 5918.0 5960.0 5828.0 5716.0 5866.0\n6784.0 5920.0 5964.0 5830.0 5716.0 5862.0\n6794.0 5922.0 5972.0 5812.0 5718.0 5862.0\n6784.0 5914.0 5962.0 5816.0 5714.0 5864.0\n6788.0 5924.0 5958.0 5820.0 5708.0 5870.0\n6786.0 5912.0 5970.0 5824.0 5718.0 5858.0\n6782.0 5932.0 5958.0 5816.0 5724.0 5868.0\n6790.0 5922.0 5960.0 5810.0 5718.0 5866.0\n6792.0 5920.0 5964.0 5814.0 5716.0 5862.0\n6788.0 5918.0 5960.0 5810.0 5716.0 5864.0\n6788.0 5930.0 5964.0 5828.0 5710.0 5872.0\n6782.0 5926.0 5970.0 5812.0 5716.0 5862.0\n6792.0 5914.0 5962.0 5828.0 5714.0 5864.0\n6784.0 5922.0 5962.0 5824.0 5718.0 5870.0\n6790.0 5930.0 5970.0 5820.0 5714.0 5864.0\n6794.0 5910.0 5964.0 5812.0 5712.0 5868.0\n6782.0 5922.0 5968.0 5814.0 5716.0 5868.0\n6792.0 5924.0 5960.0 5814.0 5712.0 5874.0\n6788.0 5924.0 5970.0 5820.0 5714.0 5860.0\n6778.0 5922.0 5952.0 5820.0 5718.0 5860.0\n6778.0 5920.0 5966.0 5822.0 5718.0 5892.0\n6778.0 5916.0 5958.0 5814.0 5720.0 5860.0\n6786.0 5918.0 5964.0 5816.0 5714.0 5874.0\n6790.0 5920.0 5964.0 5814.0 5720.0 5862.0\n6798.0 5924.0 5964.0 5818.0 5708.0 5870.0\n6778.0 5920.0 5972.0 5806.0 5716.0 5864.0\n6780.0 5924.0 5966.0 5824.0 5708.0 5868.0\n6788.0 5922.0 5962.0 5820.0 5708.0 5860.0\n6786.0 5918.0 5956.0 5814.0 5714.0 5866.0\n6786.0 5928.0 5972.0 5816.0 5716.0 5874.0\n6784.0 5920.0 5966.0 5814.0 5716.0 5868.0\n6792.0 5920.0 5964.0 5824.0 5704.0 5856.0\n6780.0 5922.0 5958.0 5812.0 5714.0 5864.0\n6790.0 5912.0 5958.0 5814.0 5722.0 5866.0\n6794.0 5930.0 5956.0 5810.0 5710.0 5860.0\n6788.0 5922.0 5964.0 5822.0 5710.0 5858.0\n6780.0 5926.0 5960.0 5818.0 5718.0 5866.0\n6776.0 5924.0 5962.0 5812.0 5716.0 5868.0\n6790.0 5918.0 5958.0 5814.0 5714.0 5862.0\n6794.0 5922.0 5966.0 5822.0 5714.0 5866.0\n6780.0 5928.0 5964.0 5808.0 5716.0 5870.0\n6790.0 5920.0 5964.0 5814.0 5714.0 5872.0\n6786.0 5928.0 5962.0 5814.0 5710.0 5872.0\n6786.0 5924.0 5964.0 5812.0 5712.0 5868.0\n6800.0 5920.0 5962.0 5818.0 5718.0 5864.0\n6792.0 5926.0 5956.0 5822.0 5716.0 5864.0\n6776.0 5918.0 5954.0 5818.0 5714.0 5872.0\n6786.0 5922.0 5960.0 5818.0 5720.0 5868.0\n6788.0 5924.0 5960.0 5812.0 5714.0 5870.0\n6786.0 5920.0 5968.0 5818.0 5716.0 5872.0\n6786.0 5932.0 5954.0 5828.0 5720.0 5876.0\n6792.0 5922.0 5956.0 5818.0 5720.0 5868.0\n6786.0 5918.0 5960.0 5806.0 5712.0 5864.0\n6784.0 5922.0 5972.0 5818.0 5720.0 5870.0\n6792.0 5930.0 5962.0 5806.0 5712.0 5864.0\n6782.0 5916.0 5956.0 5820.0 5718.0 5860.0\n6794.0 5922.0 5964.0 5816.0 5716.0 5858.0\n6788.0 5922.0 5962.0 5814.0 5714.0 5864.0\n6786.0 5916.0 5964.0 5816.0 5710.0 5864.0\n6782.0 5920.0 5962.0 5814.0 5710.0 5866.0\n6788.0 5926.0 5958.0 5816.0 5716.0 5862.0\n6780.0 5924.0 5962.0 5810.0 5712.0 5868.0\n6782.0 5900.0 5954.0 5808.0 5716.0 5864.0\n6790.0 5924.0 5960.0 5820.0 5718.0 5858.0\n6788.0 5924.0 5970.0 5814.0 5704.0 5870.0\n6786.0 5916.0 5960.0 5816.0 5714.0 5860.0\n6764.0 5924.0 5958.0 5810.0 5720.0 5870.0\n6786.0 5912.0 5966.0 5820.0 5712.0 5860.0\n