6674.0 5906.0 5908.0 5786.0 5690.0 5866.0\n6672.0 5906.0 5906.0 5776.0 5686.0 5864.0\n6674.0 5910.0 5908.0 5794.0 5682.0 5868.0\n6672.0 5896.0 5902.0 5784.0 5696.0 5864.0\n6682.0 5904.0 5908.0 5786.0 5692.0 5860.0\n6672.0 5896.0 5904.0 5790.0 5698.0 5860.0\n6670.0 5894.0 5914.0 5790.0 5686.0 5866.0\n6674.0 5906.0 5900.0 5792.0 5692.0 5858.0\n6672.0 5902.0 5912.0 5782.0 5692.0 5862.0\n6676.0 5900.0 5912.0 5788.0 5688.0 5862.0\n6674.0 5902.0 5906.0 5776.0 5692.0 5868.0\n6674.0 5906.0 5910.0 5790.0 5696.0 5856.0\n6670.0 5908.0 5916.0 5778.0 5690.0 5868.0\n6670.0 5906.0 5916.0 5770.0 5690.0 5866.0\n6670.0 5908.0 5904.0 5790.0 5692.0 5870.0\n6676.0 5886.0 5896.0 5794.0 5696.0 5868.0\n6666.0 5904.0 5918.0 5786.0 5692.0 5858.0\n6670.0 5898.0 5908.0 5788.0 5688.0 5866.0\n6668.0 5908.0 5908.0 5786.0 5684.0 5858.0\n6670.0 5902.0 5916.0 5782.0 5688.0 5860.0\n6676.0 5898.0 5910.0 5782.0 5684.0 5850.0\n6670.0 5894.0 5910.0 5772.0 5696.0 5862.0\n6678.0 5902.0 5908.0 5780.0 5692.0 5868.0\n6672.0 5914.0 5912.0 5792.0 5692.0 5866.0\n6666.0 5902.0 5908.0 5794.0 5698.0 5866.0\n6690.0 5900.0 5916.0 5782.0 5702.0 5862.0\n6686.0 5904.0 5902.0 5784.0 5698.0 5854.0\n6700.0 5904.0 5922.0 5786.0 5690.0 5860.0\n6698.0 5904.0 5906.0 5784.0 5694.0 5860.0\n6710.0 5908.0 5910.0 5798.0 5686.0 5856.0\n6716.0 5906.0 5918.0 5784.0 5674.0 5866.0\n6744.0 5904.0 5922.0 5782.0 5700.0 5850.0\n6752.0 5902.0 5910.0 5792.0 5706.0 5870.0\n6762.0 5902.0 5928.0 5798.0 5704.0 5870.0\n6804.0 5910.0 5920.0 5804.0 5716.0 5860.0\n6826.0 5912.0 5930.0 5806.0 5730.0 5874.0\n6846.0 5918.0 5922.0 5812.0 5720.0 5864.0\n6866.0 5918.0 5940.0 5822.0 5744.0 5864.0\n6912.0 5920.0 5948.0 5838.0 5754.0 5866.0\n6920.0 5918.0 5958.0 5862.0 5768.0 5870.0\n6990.0 5930.0 5970.0 5916.0 5802.0 5868.0\n7010.0 5922.0 5966.0 5930.0 5806.0 5874.0\n7052.0 5932.0 5988.0 5960.0 5826.0 5874.0\n7066.0 5942.0 5988.0 5990.0 5828.0 5868.0\n7076.0 5942.0 6004.0 6026.0 5852.0 5878.0\n7094.0 5940.0 6018.0 6054.0 5874.0 5868.0\n7150.0 5952.0 6018.0 6086.0 5886.0 5870.0\n7234.0 5958.0 6036.0 6134.0 5906.0 5870.0\n7252.0 5962.0 6034.0 6172.0 5944.0 5870.0\n7274.0 5966.0 6050.0 6214.0 5998.0 5872.0\n7282.0 5954.0 6046.0 6286.0 6046.0 5866.0\n7302.0 5968.0 6058.0 6326.0 6072.0 5868.0\n7314.0 5950.0 6064.0 6380.0 6096.0 5872.0\n7326.0 5978.0 6060.0 6404.0 6116.0 5864.0\n7358.0 5992.0 6074.0 6420.0 6136.0 5870.0\n7358.0 5980.0 6072.0 6438.0 6160.0 5876.0\n7356.0 5994.0 6078.0 6460.0 6174.0 5882.0\n7360.0 5988.0 6080.0 6468.0 6202.0 5872.0\n7356.0 5980.0 6084.0 6516.0 6220.0 5874.0\n7358.0 5980.0 6096.0 6522.0 6224.0 5876.0\n7372.0 5988.0 6086.0 6526.0 6246.0 5884.0\n7376.0 5974.0 6098.0 6564.0 6254.0 5868.0\n7382.0 5988.0 6094.0 6578.0 6246.0 5876.0\n7370.0 5988.0 6102.0 6574.0 6256.0 5876.0\n7382.0 5986.0 6106.0 6594.0 6268.0 5874.0\n7422.0 5992.0 6106.0 6612.0 6270.0 5884.0\n7422.0 5986.0 6106.0 6634.0 6292.0 5876.0\n7422.0 5990.0 6104.0 6632.0 6294.0 5874.0\n7422.0 5992.0 6108.0 6638.0 6286.0 5882.0\n7418.0 5984.0 6104.0 6626.0 6284.0 5866.0\n7426.0 5982.0 6098.0 6592.0 6286.0 5872.0\n7422.0 5982.0 6102.0 6616.0 6302.0 5870.0\n7426.0 5990.0 6098.0 6626.0 6336.0 5870.0\n7442.0 5976.0 6108.0 6622.0 6394.0 5878.0\n7458.0 5992.0 6106.0 6630.0 6430.0 5878.0\n7468.0 5992.0 6124.0 6624.0 6454.0 5872.0\n7476.0 5976.0 6128.0 6636.0 6478.0 5866.0\n7482.0 5978.0 6142.0 6628.0 6482.0 5866.0\n7468.0 5980.0 6132.0 6632.0 6454.0 5868.0\n7456.0 5988.0 6132.0 6636.0 6450.0 5870.0\n7454.0 5978.0 6116.0 6552.0 6394.0 5868.0\n7454.0 5978.0 6106.0 6524.0 6346.0 5864.0\n7444.0 5980.0 6098.0 6446.0 6306.0 5868.0\n7442.0 5976.0 6098.0 6404.0 6268.0 5862.0\n7426.0 5982.0 6096.0 6372.0 6230.0 5860.0\n7356.0 5964.0 6084.0 6336.0 6204.0 5858.0\n7364.0 5966.0 6072.0 6300.0 6158.0 5862.0\n7354.0 5956.0 6072.0 6264.0 6120.0 5858.0\n7260.0 5958.0 6046.0 6168.0 6058.0 5858.0\n7242.0 5948.0 6038.0 6148.0 6022.0 5860.0\n7192.0 5940.0 6026.0 6090.0 5986.0 5862.0\n7192.0 5948.0 6014.0 6054.0 5972.0 5862.0\n7110.0 5950.0 6008.0 5998.0 5922.0 5876.0\n7100.0 5944.0 6000.0 5978.0 5886.0 5862.0\n7056.0 5950.0 5986.0 5940.0 5854.0 5856.0\n7004.0 5934.0 5976.0 5910.0 5818.0 5854.0\n6974.0 5940.0 5968.0 5882.0 5796.0 5860.0\n6946.0 5942.0 5958.0 5868.0 5784.0 5866.0\n6908.0 5938.0 5952.0 5848.0 5746.0 5836.0\n6910.0 5932.0 5950.0 5848.0 5752.0 5864.0\n6878.0 5940.0 5960.0 5834.0 5742.0 5874.0\n6862.0 5914.0 5942.0 5826.0 5730.0 5852.0\n6864.0 5934.0 5946.0 5828.0 5740.0 5864.0\n6856.0 5920.0 5952.0 5820.0 5730.0 5860.0\n6858.0 5920.0 5942.0 5822.0 5726.0 5868.0\n6850.0 5918.0 5932.0 5810.0 5722.0 5858.0\n6848.0 5928.0 5936.0 5816.0 5708.0 5860.0\n6812.0 5920.0 5942.0 5818.0 5718.0 5868.0\n6816.0 5924.0 5940.0 5804.0 5718.0 5870.0\n6810.0 5924.0 5940.0 5810.0 5716.0 5860.0\n6798.0 5924.0 5928.0 5812.0 5718.0 5870.0\n6800.0 5918.0 5934.0 5814.0 5702.0 5856.0\n6764.0 5922.0 5932.0 5804.0 5702.0 5868.0\n6766.0 5914.0 5928.0 5816.0 5700.0 5862.0\n6766.0 5920.0 5940.0 5792.0 5710.0 5860.0\n6764.0 5932.0 5932.0 5802.0 5700.0 5858.0\n6760.0 5930.0 5934.0 5802.0 5696.0 5862.0\n6766.0 5920.0 5924.0 5806.0 5702.0 5860.0\n6750.0 5922.0 5930.0 5802.0 5704.0 5846.0\n6744.0 5924.0 5930.0 5802.0 5694.0 5862.0\n6754.0 5920.0 5928.0 5806.0 5702.0 5858.0\n6742.0 5922.0 5930.0 5792.0 5698.0 5858.0\n6742.0 5912.0 5922.0 5800.0 5700.0 5860.0\n6734.0 5914.0 5924.0 5806.0 5696.0 5862.0\n6736.0 5924.0 5934.0 5804.0 5704.0 5860.0\n6740.0 5920.0 5920.0 5800.0 5696.0 5860.0\n6742.0 5914.0 5928.0 5798.0 5698.0 5868.0\n6740.0 5926.0 5930.0 5796.0 5692.0 5862.0\n6736.0 5930.0 5930.0 5796.0 5692.0 5862.0\n6740.0 5918.0 5928.0 5806.0 5692.0 5862.0\n6730.0 5920.0 5930.0 5802.0 5696.0 5868.0\n6732.0 5920.0 5924.0 5796.0 5704.0 5856.0\n6730.0 5916.0 5934.0 5806.0 5698.0 5860.0\n6736.0 5922.0 5940.0 5800.0 5696.0 5862.0\n6724.0 5922.0 5910.0 5796.0 5694.0 5864.0\n6726.0 5926.0 5924.0 5804.0 5688.0 5866.0\n6734.0 5926.0 5928.0 5798.0 5698.0 5858.0\n6730.0 5926.0 5926.0 5794.0 5690.0 5860.0\n6726.0 5912.0 5926.0 5804.0 5690.0 5864.0\n6734.0 5920.0 5920.0 5796.0 5730.0 5858.0\n6726.0 5924.0 5924.0 5800.0 5698.0 5860.0\n6732.0 5906.0 5928.0 5804.0 5694.0 5864.0\n6730.0 5926.0 5926.0 5794.0 5700.0 5854.0\n6726.0 5914.0 5916.0 5806.0 5688.0 5860.0\n6722.0 5914.0 5920.0 5798.0 5692.0 5866.0\n6726.0 5930.0 5920.0 5796.0 5690.0 5854.0\n6726.0 5918.0 5922.0 5802.0 5696.0 5868.0\n6716.0 5930.0 5914.0 5794.0 5700.0 5860.0\n6728.0 5928.0 5920.0 5788.0 5696.0 5864.0\n6720.0 5918.0 5926.0 5806.0 5696.0 5864.0\n6734.0 5908.0 5924.0 5796.0 5694.0 5856.0\n6726.0 5926.0 5924.0 5804.0 5692.0 5862.0\n6730.0 5924.0 5918.0 5802.0 5694.0 5874.0\n6732.0 5926.0 5928.0 5794.0 5688.0 5854.0\n6732.0 5926.0 5926.0 5800.0 5698.0 5860.0\n6726.0 5922.0 5930.0 5796.0 5690.0 5864.0\n6722.0 5924.0 5928.0 5800.0 5694.0 5866.0\n6734.0 5904.0 5936.0 5800.0 5698.0 5858.0\n6732.0 5924.0 5926.0 5810.0 5694.0 5858.0\n6724.0 5920.0 5922.0 5794.0 5700.0 5860.0\n6716.0 5916.0 5922.0 5806.0 5696.0 5864.0\n6726.0 5918.0 5930.0 5796.0 5696.0 5860.0\n6728.0 5910.0 5928.0 5798.0 5692.0 5856.0\n6710.0 5912.0 5926.0 5796.0 5702.0 5862.0\n6726.0 5922.0 5924.0 5788.0 5686.0 5866.0\n6724.0 5928.0 5918.0 5796.0 5698.0 5862.0\n6726.0 5922.0 5930.0 5806.0 5694.0 5854.0\n6736.0 5924.0 5920.0 5784.0 5698.0 5862.0\n6732.0 5924.0 5926.0 5802.0 5692.0 5868.0\n6724.0 5924.0 5922.0 5786.0 5688.0 5860.0\n6732.0 5914.0 5918.0 5798.0 5700.0 5862.0\n6728.0 5920.0 5922.0 5792.0 5696.0 5870.0\n6724.0 5916.0 5920.0 5800.0 5694.0 5860.0\n6732.0 5920.0 5920.0 5800.0 5696.0 5860.0\n6722.0 5920.0 5916.0 5806.0 5692.0 5866.0\n6728.0 5924.0 5922.0 5794.0 5690.0 5850.0\n6728.0 5914.0 5916.0 5796.0 5696.0 5864.0\n6734.0 5912.0 5908.0 5790.0 5688.0 5862.0\n6714.0 5928.0 5918.0 5794.0 5688.0 5864.0\n6726.0 5916.0 5926.0 5794.0 5692.0 5862.0\n6730.0 5916.0 5930.0 5792.0 5698.0 5862.0\n6740.0 5924.0 5922.0 5792.0 5688.0 5866.0\n6730.0 5918.0 5922.0 5792.0 5700.0 5870.0\n6728.0 5916.0 5922.0 5794.0 5692.0 5870.0\n6726.0 5922.0 5922.0 5794.0 5698.0 5866.0\n6730.0 5922.0 5908.0 5792.0 5696.0 5864.0\n6738.0 5920.0 5930.0 5800.0 5692.0 5854.0\n6726.0 5912.0 5918.0 5792.0 5692.0 5864.0\n6730.0 5916.0 5924.0 5786.0 5688.0 5862.0\n6740.0 5924.0 5928.0 5796.0 5690.0 5858.0\n6738.0 5922.0 5912.0 5792.0 5698.0 5860.0\n6728.0 5928.0 5924.0 5796.0 5694.0 5858.0\n6734.0 5920.0 5914.0 5800.0 5692.0 5862.0\n6728.0 5918.0 5924.0 5788.0 5698.0 5868.0\n6730.0 5918.0 5920.0 5794.0 5692.0 5862.0\n6726.0 5926.0 5926.0 5794.0 5696.0 5866.0\n6728.0 5922.0 5918.0 5804.0 5700.0 5856.0\n6732.0 5918.0 5920.0 5800.0 5694.0 5862.0\n6724.0 5920.0 5920.0 5794.0 5692.0 5862.0\n6732.0 5922.0 5928.0 5782.0 5694.0 5868.0\n6738.0 5918.0 5932.0 5804.0 5696.0 5874.0\n6728.0 5918.0 5918.0 5802.0 5684.0 5864.0\n6734.0 5922.0 5926.0 5804.0 5698.0 5862.0\n6732.0 5932.0 5930.0 5802.0 5694.0 5870.0\n6744.0 5914.0 5918.0 5796.0 5698.0 5856.0\n6730.0 5926.0 5914.0 5796.0 5702.0 5862.0\n6734.0 5918.0 5928.0 5800.0 5688.0 5860.0\n6732.0 5918.0 5934.0 5800.0 5696.0 5864.0\n6726.0 5914.0 5914.0 5806.0 5696.0 5860.0\n6728.0 5920.0 5920.0 5798.0 5690.0 5864.0\n6732.0 5912.0 5920.0 5796.0 5690.0 5862.0\n6732.0 5914.0 5926.0 5794.0 5690.0 5860.0\n6734.0 5920.0 5918.0 5792.0 5698.0 5862.0\n6728.0 5924.0 5924.0 5790.0 5696.0 5858.0\n6730.0 5928.0 5926.0 5794.0 5694.0 5862.0\n6730.0 5922.0 5926.0 5800.0 5698.0 5860.0\n6722.0 5924.0 5916.0 5808.0 5690.0 5862.0\n6736.0 5922.0 5920.0 5798.0 5704.0 5866.0\n6732.0 5922.0 5928.0 5794.0 5682.0 5868.0\n6732.0 5924.0 5928.0 5810.0 5700.0 5866.0\n6744.0 5922.0 5918.0 5788.0 5694.0 5850.0\n6730.0 5910.0 5920.0 5798.0 5688.0 5858.0\n6732.0 5920.0 5914.0 5800.0 5690.0 5860.0\n6734.0 5920.0 5922.0 5790.0 5700.0 5860.0\n6724.0 5926.0 5916.0 5798.0 5700.0 5850.0\n6742.0 5920.0 5914.0 5786.0 5688.0 5862.0\n6734.0 5920.0 5930.0 5804.0 5698.0 5866.0\n6738.0 5920.0 5926.0 5792.0 5692.0 5868.0\n6734.0 5924.0 5928.0 5794.0 5696.0 5864.0\n6738.0 5922.0 5926.0 5798.0 5688.0 5868.0\n6742.0 5920.0 5924.0 5802.0 5696.0 5856.0\n6730.0 5918.0 5914.0 5782.0 5692.0 5852.0\n6732.0 5918.0 5928.0 5798.0 5696.0 5858.0\n6738.0 5920.0 5922.0 5804.0 5696.0 5862.0\n6742.0 5922.0 5924.0 5796.0 5680.0 5860.0\n6744.0 5924.0 5928.0 5800.0 5692.0 5870.0\n6724.0 5914.0 5906.0 5794.0 5694.0 5856.0\n6734.0 5920.0 5918.0 5802.0 5692.0 5862.0\n6728.0 5920.0 5930.0 5790.0 5692.0 5866.0\n6734.0 5914.0 5926.0 5792.0 5694.0 5860.0\n6728.0 5922.0 5928.0 5796.0 5696.0 5862.0\n6726.0 5922.0 5920.0 5790.0 5700.0 5862.0\n6736.0 5920.0 5924.0 5790.0 5694.0 5868.0\n6732.0 5918.0 5916.0 5802.0 5696.0 5862.0\n6738.0 5918.0 5922.0 5800.0 5702.0 5866.0\n6730.0 5914.0 5926.0 5796.0 5690.0 5862.0\n6734.0 5924.0 5920.0 5808.0 5684.0 5860.0\n6736.0 5920.0 5920.0 5798.0 5686.0 5858.0\n6728.0 5920.0 5920.0 5788.0 5696.0 5858.0\n6742.0 5924.0 5926.0 5796.0 5694.0 5862.0\n6742.0 5922.0 5914.0 5806.0 5688.0 5862.0\n6734.0 5924.0 5924.0 5790.0 5688.0 5854.0\n6734.0 5918.0 5922.0 5798.0 5690.0 5860.0\n6742.0 5912.0 5922.0 5796.0 5682.0 5870.0\n6734.0 5922.0 5920.0 5792.0 5694.0 5864.0\n6734.0 5922.0 5914.0 5800.0 5688.0 5866.0\n6740.0 5922.0 5924.0 5796.0 5700.0 5860.0\n6730.0 5916.0 5918.0 5792.0 5694.0 5858.0\n6728.0 5920.0 5916.0 5778.0 5684.0 5862.0\n6730.0 5920.0 5922.0 5800.0 5682.0 5864.0\n6742.0 5916.0 5918.0 5796.0 5684.0 5864.0\n6724.0 5940.0 5928.0 5782.0 5692.0 5870.0\n