6748.0 5910.0 5946.0 5796.0 5698.0 5870.0\n6748.0 5910.0 5940.0 5810.0 5700.0 5854.0\n6750.0 5920.0 5950.0 5806.0 5698.0 5870.0\n6748.0 5916.0 5956.0 5802.0 5708.0 5858.0\n6750.0 5906.0 5956.0 5804.0 5698.0 5862.0\n6738.0 5916.0 5952.0 5810.0 5698.0 5866.0\n6748.0 5912.0 5946.0 5804.0 5698.0 5866.0\n6744.0 5914.0 5946.0 5790.0 5698.0 5866.0\n6744.0 5912.0 5940.0 5796.0 5690.0 5858.0\n6744.0 5910.0 5952.0 5792.0 5696.0 5860.0\n6738.0 5908.0 5948.0 5798.0 5700.0 5866.0\n6756.0 5910.0 5956.0 5796.0 5688.0 5862.0\n6748.0 5914.0 5938.0 5804.0 5704.0 5860.0\n6746.0 5916.0 5940.0 5790.0 5706.0 5864.0\n6756.0 5922.0 5954.0 5808.0 5692.0 5862.0\n6756.0 5920.0 5950.0 5806.0 5694.0 5866.0\n6756.0 5914.0 5946.0 5794.0 5692.0 5866.0\n6756.0 5920.0 5954.0 5814.0 5698.0 5864.0\n6750.0 5918.0 5944.0 5806.0 5708.0 5866.0\n6774.0 5912.0 5948.0 5804.0 5710.0 5856.0\n6780.0 5908.0 5956.0 5802.0 5704.0 5870.0\n6778.0 5902.0 5944.0 5812.0 5702.0 5864.0\n6802.0 5920.0 5950.0 5808.0 5698.0 5864.0\n6806.0 5916.0 5948.0 5812.0 5708.0 5862.0\n6824.0 5922.0 5954.0 5802.0 5710.0 5866.0\n6830.0 5922.0 5950.0 5796.0 5704.0 5870.0\n6840.0 5916.0 5956.0 5814.0 5702.0 5864.0\n6850.0 5916.0 5954.0 5822.0 5714.0 5870.0\n6866.0 5914.0 5964.0 5816.0 5716.0 5862.0\n6872.0 5920.0 5950.0 5820.0 5716.0 5868.0\n6900.0 5914.0 5960.0 5818.0 5718.0 5874.0\n6910.0 5922.0 5966.0 5838.0 5738.0 5858.0\n6916.0 5926.0 5978.0 5836.0 5742.0 5870.0\n6942.0 5908.0 5984.0 5856.0 5754.0 5866.0\n6962.0 5922.0 5984.0 5864.0 5756.0 5876.0\n6986.0 5924.0 5986.0 5890.0 5768.0 5876.0\n6974.0 5928.0 5990.0 5886.0 5768.0 5866.0\n7026.0 5928.0 5998.0 5918.0 5786.0 5878.0\n7052.0 5918.0 6016.0 5934.0 5788.0 5872.0\n7066.0 5926.0 6022.0 5952.0 5802.0 5874.0\n7070.0 5932.0 6028.0 5974.0 5822.0 5870.0\n7128.0 5932.0 6040.0 6042.0 5854.0 5874.0\n7166.0 5926.0 6062.0 6076.0 5862.0 5872.0\n7260.0 5950.0 6068.0 6168.0 5914.0 5874.0\n7324.0 5954.0 6090.0 6192.0 5942.0 5874.0\n7352.0 5970.0 6088.0 6276.0 6046.0 5874.0\n7340.0 5962.0 6086.0 6318.0 6080.0 5880.0\n7356.0 5958.0 6082.0 6386.0 6164.0 5874.0\n7384.0 5972.0 6096.0 6418.0 6190.0 5870.0\n7394.0 5968.0 6100.0 6438.0 6208.0 5870.0\n7398.0 5974.0 6100.0 6456.0 6216.0 5874.0\n7400.0 5994.0 6096.0 6464.0 6212.0 5876.0\n7394.0 5990.0 6092.0 6462.0 6210.0 5882.0\n7390.0 6014.0 6100.0 6460.0 6218.0 5884.0\n7396.0 6016.0 6096.0 6462.0 6218.0 5878.0\n7396.0 6006.0 6082.0 6464.0 6218.0 5860.0\n7396.0 6018.0 6098.0 6474.0 6206.0 5880.0\n7390.0 6004.0 6098.0 6464.0 6190.0 5880.0\n7376.0 6002.0 6086.0 6462.0 6174.0 5884.0\n7372.0 6004.0 6086.0 6460.0 6136.0 5880.0\n7366.0 5998.0 6084.0 6446.0 6112.0 5878.0\n7358.0 5994.0 6068.0 6392.0 6094.0 5874.0\n7344.0 6002.0 6066.0 6366.0 6058.0 5876.0\n7346.0 5996.0 6074.0 6326.0 6046.0 5874.0\n7274.0 5986.0 6054.0 6252.0 6016.0 5866.0\n7264.0 5978.0 6056.0 6228.0 5996.0 5870.0\n7266.0 5978.0 6062.0 6212.0 5990.0 5874.0\n7244.0 5962.0 6046.0 6174.0 5974.0 5862.0\n7238.0 5964.0 6050.0 6162.0 5956.0 5868.0\n7236.0 5954.0 6042.0 6120.0 5946.0 5864.0\n7232.0 5960.0 6040.0 6078.0 5924.0 5858.0\n7188.0 5956.0 6038.0 6050.0 5908.0 5872.0\n7188.0 5954.0 6030.0 6020.0 5892.0 5874.0\n7146.0 5946.0 6030.0 5982.0 5876.0 5870.0\n7110.0 5940.0 6016.0 5958.0 5846.0 5860.0\n7066.0 5930.0 6006.0 5928.0 5824.0 5868.0\n6996.0 5934.0 5988.0 5878.0 5782.0 5860.0\n6962.0 5930.0 5984.0 5870.0 5772.0 5852.0\n6920.0 5926.0 5970.0 5854.0 5752.0 5858.0\n6900.0 5928.0 5972.0 5850.0 5738.0 5868.0\n6854.0 5916.0 5952.0 5834.0 5740.0 5854.0\n6830.0 5926.0 5952.0 5834.0 5740.0 5864.0\n6818.0 5916.0 5962.0 5822.0 5730.0 5864.0\n6798.0 5912.0 5958.0 5820.0 5728.0 5860.0\n6774.0 5918.0 5972.0 5816.0 5716.0 5864.0\n6782.0 5918.0 5962.0 5806.0 5716.0 5862.0\n6776.0 5912.0 5956.0 5818.0 5716.0 5856.0\n6766.0 5912.0 5944.0 5818.0 5716.0 5862.0\n6772.0 5910.0 5958.0 5812.0 5720.0 5864.0\n6770.0 5924.0 5952.0 5806.0 5712.0 5864.0\n6760.0 5922.0 5938.0 5816.0 5710.0 5862.0\n6764.0 5920.0 5950.0 5818.0 5716.0 5862.0\n6756.0 5918.0 5944.0 5808.0 5714.0 5866.0\n6740.0 5912.0 5948.0 5824.0 5710.0 5866.0\n6746.0 5914.0 5950.0 5814.0 5718.0 5860.0\n6744.0 5920.0 5946.0 5814.0 5704.0 5856.0\n6746.0 5910.0 5956.0 5812.0 5706.0 5868.0\n6746.0 5914.0 5944.0 5810.0 5708.0 5866.0\n6746.0 5910.0 5938.0 5808.0 5716.0 5852.0\n6750.0 5916.0 5940.0 5812.0 5720.0 5858.0\n6746.0 5920.0 5956.0 5802.0 5710.0 5858.0\n6750.0 5922.0 5956.0 5814.0 5706.0 5860.0\n6744.0 5916.0 5960.0 5810.0 5702.0 5862.0\n6754.0 5910.0 5944.0 5802.0 5700.0 5860.0\n6748.0 5912.0 5942.0 5804.0 5712.0 5860.0\n6744.0 5918.0 5954.0 5814.0 5716.0 5864.0\n6760.0 5914.0 5958.0 5808.0 5716.0 5862.0\n6754.0 5918.0 5960.0 5810.0 5706.0 5858.0\n6760.0 5916.0 5946.0 5802.0 5708.0 5864.0\n6758.0 5908.0 5942.0 5814.0 5708.0 5864.0\n6760.0 5922.0 5948.0 5814.0 5718.0 5864.0\n6760.0 5918.0 5956.0 5810.0 5708.0 5860.0\n6752.0 5906.0 5948.0 5818.0 5706.0 5864.0\n6768.0 5918.0 5948.0 5806.0 5714.0 5854.0\n6762.0 5922.0 5954.0 5808.0 5716.0 5872.0\n6754.0 5916.0 5962.0 5810.0 5716.0 5866.0\n6752.0 5920.0 5958.0 5820.0 5718.0 5860.0\n6764.0 5918.0 5950.0 5814.0 5718.0 5870.0\n6762.0 5916.0 5950.0 5804.0 5708.0 5862.0\n6756.0 5910.0 5952.0 5810.0 5706.0 5856.0\n6766.0 5912.0 5946.0 5808.0 5708.0 5864.0\n6766.0 5914.0 5946.0 5802.0 5710.0 5860.0\n6750.0 5920.0 5954.0 5810.0 5702.0 5860.0\n6756.0 5918.0 5950.0 5808.0 5710.0 5868.0\n6756.0 5918.0 5950.0 5808.0 5702.0 5864.0\n6760.0 5910.0 5950.0 5802.0 5712.0 5860.0\n6758.0 5910.0 5952.0 5804.0 5704.0 5862.0\n6750.0 5910.0 5944.0 5818.0 5700.0 5858.0\n6754.0 5924.0 5952.0 5826.0 5706.0 5860.0\n6756.0 5918.0 5946.0 5804.0 5690.0 5862.0\n6752.0 5916.0 5954.0 5814.0 5702.0 5860.0\n6758.0 5922.0 5956.0 5816.0 5712.0 5860.0\n6732.0 5902.0 5938.0 5802.0 5710.0 5862.0\n6750.0 5912.0 5948.0 5804.0 5706.0 5862.0\n6762.0 5918.0 5950.0 5816.0 5704.0 5864.0\n6760.0 5914.0 5954.0 5814.0 5712.0 5862.0\n6758.0 5916.0 5954.0 5796.0 5704.0 5864.0\n6752.0 5912.0 5948.0 5810.0 5706.0 5862.0\n6754.0 5912.0 5960.0 5808.0 5700.0 5858.0\n6754.0 5924.0 5960.0 5792.0 5708.0 5866.0\n6758.0 5916.0 5950.0 5808.0 5710.0 5870.0\n6756.0 5892.0 5952.0 5808.0 5700.0 5862.0\n6752.0 5910.0 5952.0 5812.0 5712.0 5862.0\n6758.0 5918.0 5948.0 5814.0 5708.0 5866.0\n6762.0 5912.0 5950.0 5814.0 5710.0 5856.0\n6756.0 5914.0 5956.0 5804.0 5700.0 5862.0\n6748.0 5914.0 5950.0 5812.0 5706.0 5864.0\n6760.0 5910.0 5942.0 5810.0 5712.0 5858.0\n6756.0 5912.0 5944.0 5812.0 5704.0 5854.0\n6762.0 5914.0 5958.0 5816.0 5704.0 5856.0\n6760.0 5904.0 5948.0 5808.0 5710.0 5852.0\n6750.0 5922.0 5952.0 5802.0 5712.0 5872.0\n6754.0 5914.0 5960.0 5808.0 5700.0 5864.0\n6754.0 5920.0 5960.0 5802.0 5708.0 5864.0\n6756.0 5908.0 5948.0 5808.0 5710.0 5858.0\n6756.0 5922.0 5950.0 5810.0 5704.0 5858.0\n6758.0 5918.0 5954.0 5810.0 5706.0 5864.0\n6764.0 5920.0 5950.0 5816.0 5682.0 5864.0\n6744.0 5920.0 5956.0 5814.0 5706.0 5854.0\n6760.0 5924.0 5948.0 5794.0 5712.0 5866.0\n6760.0 5910.0 5948.0 5802.0 5714.0 5860.0\n6772.0 5918.0 5960.0 5810.0 5706.0 5860.0\n6760.0 5912.0 5948.0 5800.0 5708.0 5868.0\n6754.0 5908.0 5950.0 5838.0 5714.0 5862.0\n6752.0 5924.0 5946.0 5814.0 5702.0 5860.0\n6758.0 5918.0 5948.0 5806.0 5706.0 5866.0\n6762.0 5918.0 5954.0 5804.0 5708.0 5864.0\n6756.0 5912.0 5950.0 5810.0 5708.0 5864.0\n6758.0 5916.0 5952.0 5804.0 5714.0 5854.0\n6754.0 5914.0 5952.0 5814.0 5708.0 5868.0\n6754.0 5914.0 5950.0 5804.0 5702.0 5870.0\n6750.0 5912.0 5950.0 5800.0 5712.0 5868.0\n6758.0 5922.0 5956.0 5806.0 5704.0 5864.0\n6760.0 5918.0 5952.0 5808.0 5710.0 5860.0\n6756.0 5914.0 5948.0 5816.0 5714.0 5864.0\n6754.0 5922.0 5954.0 5808.0 5702.0 5870.0\n6750.0 5920.0 5952.0 5806.0 5706.0 5868.0\n6762.0 5912.0 5954.0 5804.0 5708.0 5860.0\n6764.0 5916.0 5958.0 5806.0 5706.0 5868.0\n6760.0 5912.0 5956.0 5802.0 5708.0 5864.0\n6756.0 5906.0 5950.0 5794.0 5708.0 5862.0\n6760.0 5908.0 5946.0 5804.0 5710.0 5862.0\n6760.0 5922.0 5958.0 5812.0 5706.0 5864.0\n6756.0 5916.0 5948.0 5814.0 5716.0 5858.0\n6762.0 5914.0 5952.0 5808.0 5702.0 5870.0\n6756.0 5916.0 5950.0 5808.0 5708.0 5868.0\n6756.0 5908.0 5960.0 5814.0 5712.0 5856.0\n6754.0 5922.0 5942.0 5810.0 5708.0 5862.0\n6756.0 5914.0 5944.0 5810.0 5714.0 5866.0\n6762.0 5914.0 5958.0 5806.0 5718.0 5860.0\n6754.0 5918.0 5944.0 5808.0 5702.0 5860.0\n6748.0 5912.0 5960.0 5810.0 5708.0 5862.0\n6760.0 5920.0 5942.0 5814.0 5708.0 5872.0\n6758.0 5912.0 5944.0 5810.0 5702.0 5864.0\n6762.0 5916.0 5952.0 5804.0 5710.0 5868.0\n6758.0 5916.0 5950.0 5812.0 5708.0 5856.0\n6756.0 5914.0 5954.0 5806.0 5706.0 5864.0\n6762.0 5908.0 5952.0 5804.0 5712.0 5860.0\n6762.0 5916.0 5948.0 5822.0 5702.0 5866.0\n6760.0 5920.0 5946.0 5806.0 5708.0 5866.0\n6756.0 5920.0 5962.0 5814.0 5702.0 5870.0\n6758.0 5910.0 5946.0 5814.0 5710.0 5868.0\n6764.0 5924.0 5954.0 5816.0 5702.0 5866.0\n6760.0 5922.0 5956.0 5796.0 5704.0 5870.0\n6760.0 5916.0 5954.0 5806.0 5714.0 5866.0\n6754.0 5916.0 5942.0 5802.0 5718.0 5858.0\n6752.0 5912.0 5942.0 5802.0 5712.0 5856.0\n6758.0 5918.0 5948.0 5808.0 5706.0 5866.0\n6754.0 5916.0 5956.0 5800.0 5710.0 5864.0\n6746.0 5916.0 5946.0 5810.0 5706.0 5862.0\n6758.0 5924.0 5946.0 5806.0 5704.0 5866.0\n6758.0 5916.0 5952.0 5806.0 5708.0 5866.0\n6764.0 5916.0 5944.0 5808.0 5698.0 5866.0\n6748.0 5920.0 5950.0 5806.0 5692.0 5868.0\n6758.0 5912.0 5958.0 5798.0 5698.0 5862.0\n6756.0 5912.0 5954.0 5808.0 5708.0 5862.0\n6756.0 5914.0 5950.0 5804.0 5706.0 5864.0\n6754.0 5918.0 5944.0 5806.0 5706.0 5858.0\n6750.0 5908.0 5954.0 5802.0 5700.0 5858.0\n6760.0 5924.0 5952.0 5804.0 5710.0 5868.0\n6754.0 5918.0 5940.0 5808.0 5712.0 5860.0\n6756.0 5912.0 5948.0 5814.0 5710.0 5860.0\n6756.0 5914.0 5956.0 5798.0 5712.0 5870.0\n6758.0 5912.0 5956.0 5820.0 5704.0 5862.0\n6760.0 5910.0 5948.0 5806.0 5704.0 5868.0\n6760.0 5918.0 5960.0 5808.0 5696.0 5870.0\n6764.0 5918.0 5948.0 5796.0 5706.0 5850.0\n6758.0 5908.0 5962.0 5810.0 5706.0 5862.0\n6758.0 5912.0 5954.0 5804.0 5704.0 5862.0\n6762.0 5914.0 5952.0 5806.0 5700.0 5864.0\n6758.0 5922.0 5948.0 5810.0 5708.0 5864.0\n6758.0 5914.0 5952.0 5810.0 5704.0 5866.0\n6752.0 5916.0 5958.0 5814.0 5704.0 5858.0\n6762.0 5918.0 5954.0 5814.0 5702.0 5862.0\n6758.0 5910.0 5954.0 5802.0 5714.0 5866.0\n6760.0 5918.0 5944.0 5800.0 5710.0 5852.0\n6754.0 5920.0 5956.0 5808.0 5702.0 5868.0\n6760.0 5920.0 5948.0 5814.0 5710.0 5862.0\n6758.0 5912.0 5938.0 5812.0 5706.0 5868.0\n6756.0 5914.0 5950.0 5816.0 5710.0 5866.0\n