6790.0 5920.0 5964.0 5802.0 5706.0 5858.0\n6790.0 5924.0 5948.0 5810.0 5702.0 5866.0\n6780.0 5916.0 5952.0 5806.0 5704.0 5862.0\n6786.0 5922.0 5950.0 5808.0 5704.0 5864.0\n6790.0 5920.0 5946.0 5808.0 5712.0 5862.0\n6780.0 5914.0 5958.0 5802.0 5714.0 5866.0\n6782.0 5920.0 5966.0 5800.0 5708.0 5868.0\n6780.0 5906.0 5952.0 5798.0 5706.0 5858.0\n6794.0 5920.0 5952.0 5808.0 5712.0 5864.0\n6788.0 5922.0 5952.0 5806.0 5714.0 5862.0\n6788.0 5920.0 5948.0 5810.0 5708.0 5864.0\n6790.0 5920.0 5954.0 5816.0 5700.0 5864.0\n6786.0 5922.0 5946.0 5810.0 5716.0 5864.0\n6790.0 5916.0 5952.0 5792.0 5714.0 5860.0\n6786.0 5912.0 5960.0 5806.0 5702.0 5868.0\n6786.0 5902.0 5946.0 5810.0 5714.0 5864.0\n6782.0 5908.0 5950.0 5804.0 5710.0 5868.0\n6782.0 5912.0 5954.0 5806.0 5706.0 5852.0\n6790.0 5908.0 5956.0 5808.0 5712.0 5868.0\n6792.0 5908.0 5964.0 5812.0 5714.0 5868.0\n6798.0 5900.0 5958.0 5806.0 5714.0 5870.0\n6798.0 5912.0 5960.0 5814.0 5704.0 5862.0\n6810.0 5918.0 5962.0 5808.0 5712.0 5868.0\n6818.0 5908.0 5964.0 5814.0 5714.0 5862.0\n6824.0 5908.0 5972.0 5798.0 5712.0 5860.0\n6830.0 5920.0 5964.0 5816.0 5716.0 5868.0\n6830.0 5912.0 5960.0 5812.0 5714.0 5874.0\n6838.0 5914.0 5972.0 5810.0 5716.0 5858.0\n6858.0 5906.0 5958.0 5812.0 5726.0 5868.0\n6858.0 5912.0 5966.0 5820.0 5716.0 5860.0\n6854.0 5922.0 5962.0 5820.0 5714.0 5872.0\n6862.0 5916.0 5962.0 5818.0 5714.0 5864.0\n6854.0 5912.0 5966.0 5812.0 5722.0 5858.0\n6854.0 5920.0 5962.0 5824.0 5714.0 5866.0\n6872.0 5926.0 5956.0 5822.0 5720.0 5870.0\n6876.0 5916.0 5966.0 5822.0 5722.0 5850.0\n6896.0 5930.0 5972.0 5824.0 5718.0 5856.0\n6918.0 5918.0 5964.0 5818.0 5726.0 5866.0\n6932.0 5916.0 5966.0 5832.0 5730.0 5866.0\n6958.0 5920.0 5974.0 5832.0 5740.0 5864.0\n6990.0 5926.0 5998.0 5868.0 5758.0 5864.0\n6994.0 5924.0 5998.0 5882.0 5764.0 5866.0\n6998.0 5922.0 6006.0 5908.0 5778.0 5868.0\n7020.0 5922.0 6006.0 5910.0 5792.0 5864.0\n7042.0 5922.0 6010.0 5930.0 5808.0 5872.0\n7074.0 5922.0 6016.0 5942.0 5814.0 5870.0\n7084.0 5924.0 6032.0 5950.0 5820.0 5868.0\n7114.0 5926.0 6032.0 5990.0 5832.0 5866.0\n7142.0 5930.0 6046.0 6014.0 5844.0 5874.0\n7160.0 5934.0 6050.0 6056.0 5874.0 5876.0\n7166.0 5934.0 6072.0 6142.0 5908.0 5878.0\n7252.0 5930.0 6080.0 6184.0 5922.0 5882.0\n7290.0 5944.0 6090.0 6194.0 5944.0 5876.0\n7302.0 5946.0 6084.0 6260.0 5988.0 5866.0\n7298.0 5950.0 6096.0 6280.0 6006.0 5868.0\n7310.0 5948.0 6094.0 6326.0 6046.0 5876.0\n7330.0 5952.0 6094.0 6368.0 6072.0 5870.0\n7374.0 5970.0 6092.0 6422.0 6122.0 5872.0\n7386.0 5966.0 6104.0 6456.0 6142.0 5876.0\n7428.0 5960.0 6110.0 6502.0 6186.0 5874.0\n7446.0 5968.0 6106.0 6526.0 6190.0 5886.0\n7450.0 5964.0 6110.0 6564.0 6224.0 5868.0\n7456.0 5956.0 6114.0 6604.0 6254.0 5876.0\n7452.0 5962.0 6118.0 6616.0 6234.0 5874.0\n7450.0 5968.0 6116.0 6604.0 6262.0 5880.0\n7444.0 5964.0 6120.0 6610.0 6238.0 5874.0\n7446.0 5954.0 6116.0 6610.0 6250.0 5870.0\n7446.0 5960.0 6110.0 6610.0 6244.0 5874.0\n7446.0 5962.0 6112.0 6596.0 6228.0 5868.0\n7442.0 5964.0 6112.0 6586.0 6238.0 5872.0\n7436.0 5958.0 6116.0 6590.0 6230.0 5874.0\n7440.0 5958.0 6116.0 6590.0 6210.0 5866.0\n7430.0 5948.0 6110.0 6538.0 6186.0 5876.0\n7420.0 5954.0 6118.0 6480.0 6172.0 5868.0\n7412.0 5952.0 6110.0 6438.0 6140.0 5870.0\n7396.0 5956.0 6106.0 6402.0 6124.0 5854.0\n7344.0 5942.0 6096.0 6346.0 6094.0 5864.0\n7336.0 5944.0 6092.0 6288.0 6072.0 5862.0\n7326.0 5944.0 6094.0 6252.0 6042.0 5872.0\n7324.0 5946.0 6094.0 6200.0 6028.0 5860.0\n7308.0 5948.0 6084.0 6180.0 6010.0 5862.0\n7254.0 5942.0 6082.0 6134.0 5992.0 5862.0\n7202.0 5928.0 6062.0 6068.0 5942.0 5856.0\n7200.0 5932.0 6054.0 6036.0 5924.0 5870.0\n7132.0 5910.0 6034.0 6000.0 5880.0 5866.0\n7088.0 5926.0 6020.0 5958.0 5856.0 5866.0\n7050.0 5924.0 6014.0 5934.0 5830.0 5868.0\n7004.0 5916.0 6014.0 5890.0 5798.0 5862.0\n6992.0 5930.0 5988.0 5880.0 5776.0 5852.0\n6938.0 5922.0 5984.0 5866.0 5766.0 5868.0\n6926.0 5890.0 5976.0 5850.0 5750.0 5864.0\n6866.0 5910.0 5974.0 5832.0 5730.0 5860.0\n6848.0 5912.0 5974.0 5834.0 5738.0 5864.0\n6852.0 5910.0 5966.0 5828.0 5732.0 5872.0\n6856.0 5910.0 5984.0 5836.0 5724.0 5874.0\n6822.0 5916.0 5976.0 5828.0 5724.0 5858.0\n6820.0 5916.0 5958.0 5830.0 5718.0 5872.0\n6824.0 5898.0 5966.0 5824.0 5720.0 5858.0\n6810.0 5906.0 5956.0 5840.0 5716.0 5862.0\n6812.0 5920.0 5958.0 5822.0 5714.0 5862.0\n6800.0 5904.0 5958.0 5834.0 5710.0 5868.0\n6814.0 5912.0 5960.0 5806.0 5714.0 5864.0\n6812.0 5904.0 5964.0 5818.0 5714.0 5864.0\n6808.0 5910.0 5962.0 5822.0 5726.0 5866.0\n6796.0 5916.0 5964.0 5830.0 5710.0 5868.0\n6782.0 5916.0 5954.0 5814.0 5718.0 5862.0\n6784.0 5918.0 5956.0 5824.0 5710.0 5868.0\n6786.0 5910.0 5976.0 5816.0 5714.0 5854.0\n6790.0 5906.0 5968.0 5820.0 5704.0 5860.0\n6784.0 5918.0 5952.0 5810.0 5718.0 5866.0\n6786.0 5922.0 5964.0 5824.0 5702.0 5862.0\n6774.0 5910.0 5948.0 5822.0 5708.0 5866.0\n6766.0 5912.0 5960.0 5816.0 5710.0 5868.0\n6782.0 5910.0 5956.0 5810.0 5710.0 5868.0\n6780.0 5920.0 5960.0 5810.0 5712.0 5860.0\n6790.0 5910.0 5954.0 5816.0 5714.0 5864.0\n6780.0 5908.0 5960.0 5816.0 5706.0 5858.0\n6782.0 5920.0 5964.0 5816.0 5710.0 5862.0\n6780.0 5914.0 5958.0 5816.0 5708.0 5862.0\n6776.0 5916.0 5950.0 5808.0 5710.0 5866.0\n6786.0 5922.0 5954.0 5820.0 5702.0 5860.0\n6776.0 5918.0 5956.0 5812.0 5710.0 5860.0\n6774.0 5912.0 5954.0 5816.0 5708.0 5860.0\n6768.0 5916.0 5960.0 5810.0 5708.0 5860.0\n6778.0 5918.0 5952.0 5816.0 5712.0 5856.0\n6774.0 5910.0 5956.0 5806.0 5702.0 5854.0\n6772.0 5908.0 5964.0 5812.0 5714.0 5864.0\n6774.0 5914.0 5956.0 5808.0 5708.0 5866.0\n6772.0 5918.0 5964.0 5812.0 5710.0 5858.0\n6776.0 5904.0 5952.0 5818.0 5702.0 5862.0\n6778.0 5902.0 5954.0 5798.0 5710.0 5860.0\n6772.0 5914.0 5958.0 5804.0 5712.0 5860.0\n6770.0 5914.0 5946.0 5816.0 5704.0 5868.0\n6772.0 5906.0 5950.0 5820.0 5708.0 5866.0\n6778.0 5918.0 5948.0 5808.0 5702.0 5862.0\n6782.0 5906.0 5964.0 5818.0 5710.0 5862.0\n6772.0 5908.0 5948.0 5800.0 5704.0 5866.0\n6770.0 5910.0 5948.0 5812.0 5714.0 5870.0\n6774.0 5924.0 5960.0 5810.0 5702.0 5860.0\n6778.0 5914.0 5952.0 5806.0 5704.0 5864.0\n6782.0 5908.0 5950.0 5812.0 5706.0 5860.0\n6770.0 5912.0 5952.0 5806.0 5712.0 5860.0\n6770.0 5910.0 5958.0 5802.0 5702.0 5866.0\n6782.0 5906.0 5956.0 5816.0 5702.0 5862.0\n6774.0 5918.0 5964.0 5812.0 5702.0 5860.0\n6776.0 5912.0 5952.0 5802.0 5700.0 5864.0\n6772.0 5908.0 5950.0 5820.0 5694.0 5864.0\n6774.0 5910.0 5950.0 5808.0 5702.0 5860.0\n6772.0 5904.0 5958.0 5816.0 5714.0 5862.0\n6774.0 5916.0 5952.0 5812.0 5698.0 5856.0\n6776.0 5916.0 5958.0 5810.0 5700.0 5864.0\n6774.0 5922.0 5960.0 5806.0 5700.0 5854.0\n6772.0 5920.0 5950.0 5806.0 5706.0 5862.0\n6776.0 5916.0 5954.0 5810.0 5706.0 5868.0\n6772.0 5912.0 5956.0 5802.0 5704.0 5862.0\n6776.0 5910.0 5940.0 5812.0 5708.0 5858.0\n6776.0 5916.0 5954.0 5814.0 5700.0 5868.0\n6776.0 5914.0 5958.0 5804.0 5710.0 5864.0\n6774.0 5912.0 5946.0 5812.0 5700.0 5862.0\n6772.0 5898.0 5958.0 5808.0 5700.0 5864.0\n6772.0 5914.0 5954.0 5810.0 5700.0 5862.0\n6772.0 5918.0 5952.0 5808.0 5696.0 5868.0\n6770.0 5916.0 5954.0 5812.0 5708.0 5868.0\n6766.0 5912.0 5948.0 5812.0 5704.0 5866.0\n6770.0 5914.0 5940.0 5806.0 5704.0 5866.0\n6772.0 5906.0 5950.0 5810.0 5700.0 5862.0\n6774.0 5906.0 5948.0 5800.0 5704.0 5864.0\n6774.0 5912.0 5954.0 5808.0 5710.0 5860.0\n6768.0 5908.0 5950.0 5806.0 5702.0 5862.0\n6774.0 5900.0 5954.0 5812.0 5706.0 5864.0\n6774.0 5912.0 5948.0 5812.0 5700.0 5868.0\n6774.0 5890.0 5946.0 5800.0 5700.0 5860.0\n6772.0 5918.0 5956.0 5810.0 5698.0 5864.0\n6768.0 5906.0 5940.0 5804.0 5702.0 5858.0\n6772.0 5904.0 5954.0 5818.0 5710.0 5856.0\n6772.0 5902.0 5950.0 5802.0 5698.0 5866.0\n6776.0 5918.0 5954.0 5804.0 5706.0 5858.0\n6774.0 5912.0 5960.0 5804.0 5702.0 5864.0\n6766.0 5912.0 5950.0 5806.0 5704.0 5862.0\n6766.0 5906.0 5954.0 5804.0 5706.0 5862.0\n6778.0 5910.0 5948.0 5808.0 5702.0 5866.0\n6768.0 5916.0 5954.0 5796.0 5710.0 5870.0\n6778.0 5914.0 5958.0 5806.0 5704.0 5858.0\n6772.0 5898.0 5966.0 5810.0 5700.0 5866.0\n6772.0 5902.0 5950.0 5808.0 5700.0 5868.0\n6766.0 5920.0 5962.0 5812.0 5710.0 5862.0\n6764.0 5918.0 5952.0 5814.0 5702.0 5862.0\n6768.0 5906.0 5950.0 5804.0 5706.0 5864.0\n6770.0 5918.0 5960.0 5810.0 5706.0 5866.0\n6770.0 5914.0 5958.0 5808.0 5700.0 5860.0\n6776.0 5916.0 5954.0 5808.0 5708.0 5866.0\n6774.0 5912.0 5948.0 5814.0 5708.0 5854.0\n6768.0 5910.0 5952.0 5808.0 5704.0 5858.0\n6764.0 5914.0 5956.0 5814.0 5700.0 5870.0\n6774.0 5902.0 5954.0 5814.0 5706.0 5866.0\n6768.0 5916.0 5952.0 5802.0 5700.0 5856.0\n6776.0 5906.0 5950.0 5806.0 5714.0 5858.0\n6768.0 5914.0 5948.0 5812.0 5700.0 5860.0\n6772.0 5912.0 5958.0 5800.0 5704.0 5864.0\n6770.0 5908.0 5944.0 5808.0 5704.0 5844.0\n6766.0 5914.0 5950.0 5812.0 5702.0 5862.0\n6778.0 5908.0 5954.0 5810.0 5714.0 5856.0\n6770.0 5910.0 5960.0 5806.0 5706.0 5870.0\n6776.0 5914.0 5952.0 5806.0 5712.0 5866.0\n6776.0 5916.0 5946.0 5812.0 5706.0 5860.0\n6778.0 5916.0 5948.0 5810.0 5706.0 5866.0\n6772.0 5916.0 5944.0 5800.0 5698.0 5864.0\n6764.0 5908.0 5944.0 5804.0 5700.0 5866.0\n6774.0 5914.0 5958.0 5810.0 5704.0 5862.0\n6772.0 5906.0 5954.0 5804.0 5706.0 5866.0\n6770.0 5914.0 5954.0 5808.0 5716.0 5862.0\n6766.0 5912.0 5948.0 5800.0 5710.0 5862.0\n6772.0 5924.0 5954.0 5812.0 5704.0 5866.0\n6782.0 5910.0 5960.0 5812.0 5716.0 5858.0\n6778.0 5904.0 5948.0 5808.0 5706.0 5862.0\n6772.0 5912.0 5946.0 5808.0 5706.0 5876.0\n6776.0 5920.0 5952.0 5808.0 5712.0 5866.0\n6780.0 5920.0 5948.0 5804.0 5698.0 5862.0\n6774.0 5902.0 5950.0 5814.0 5706.0 5860.0\n6778.0 5916.0 5938.0 5804.0 5706.0 5856.0\n6776.0 5908.0 5946.0 5804.0 5706.0 5866.0\n6778.0 5908.0 5950.0 5816.0 5700.0 5856.0\n6782.0 5902.0 5948.0 5796.0 5702.0 5864.0\n6776.0 5912.0 5948.0 5814.0 5710.0 5862.0\n6776.0 5908.0 5950.0 5812.0 5708.0 5856.0\n6766.0 5920.0 5948.0 5814.0 5706.0 5858.0\n6780.0 5908.0 5944.0 5802.0 5710.0 5866.0\n6772.0 5916.0 5954.0 5792.0 5700.0 5862.0\n6776.0 5900.0 5950.0 5810.0 5704.0 5852.0\n6774.0 5910.0 5948.0 5806.0 5702.0 5870.0\n6776.0 5902.0 5952.0 5802.0 5702.0 5862.0\n6776.0 5914.0 5946.0 5806.0 5698.0 5862.0\n6776.0 5914.0 5958.0 5808.0 5698.0 5864.0\n6774.0 5918.0 5956.0 5794.0 5700.0 5868.0\n6778.0 5902.0 5954.0 5806.0 5706.0 5866.0\n6778.0 5912.0 5962.0 5808.0 5704.0 5864.0\n6766.0 5910.0 5958.0 5802.0 5710.0 5866.0\n6776.0 5916.0 5954.0 5800.0 5708.0 5860.0\n6774.0 5910.0 5960.0 5812.0 5706.0 5858.0\n6770.0 5910.0 5954.0 5812.0 5706.0 5862.0\n6778.0 5908.0 5954.0 5804.0 5704.0 5860.0\n6766.0 5910.0 5954.0 5802.0 5708.0 5850.0\n6772.0 5910.0 5948.0 5806.0 5704.0 5864.0\n6776.0 5916.0 5956.0 5814.0 5710.0 5866.0\n