6766.0 5910.0 5918.0 5798.0 5698.0 5866.0\n6756.0 5912.0 5928.0 5800.0 5698.0 5866.0\n6756.0 5918.0 5920.0 5810.0 5694.0 5856.0\n6756.0 5912.0 5932.0 5796.0 5698.0 5866.0\n6764.0 5912.0 5914.0 5800.0 5706.0 5868.0\n6760.0 5906.0 5922.0 5796.0 5704.0 5870.0\n6750.0 5910.0 5924.0 5806.0 5704.0 5870.0\n6754.0 5896.0 5922.0 5808.0 5696.0 5866.0\n6750.0 5908.0 5922.0 5802.0 5694.0 5864.0\n6754.0 5902.0 5926.0 5800.0 5702.0 5858.0\n6756.0 5916.0 5910.0 5806.0 5696.0 5864.0\n6752.0 5906.0 5922.0 5804.0 5696.0 5864.0\n6752.0 5908.0 5928.0 5794.0 5706.0 5862.0\n6752.0 5908.0 5922.0 5802.0 5694.0 5866.0\n6758.0 5908.0 5940.0 5806.0 5696.0 5870.0\n6750.0 5900.0 5930.0 5800.0 5706.0 5862.0\n6764.0 5906.0 5918.0 5800.0 5706.0 5866.0\n6760.0 5902.0 5914.0 5812.0 5700.0 5870.0\n6756.0 5910.0 5930.0 5802.0 5698.0 5858.0\n6766.0 5902.0 5930.0 5804.0 5700.0 5872.0\n6772.0 5912.0 5922.0 5810.0 5706.0 5862.0\n6774.0 5908.0 5922.0 5802.0 5702.0 5862.0\n6780.0 5908.0 5932.0 5804.0 5706.0 5858.0\n6802.0 5912.0 5934.0 5808.0 5704.0 5852.0\n6796.0 5916.0 5922.0 5802.0 5706.0 5864.0\n6798.0 5912.0 5928.0 5806.0 5710.0 5862.0\n6816.0 5912.0 5936.0 5808.0 5704.0 5862.0\n6818.0 5920.0 5934.0 5814.0 5710.0 5858.0\n6814.0 5914.0 5920.0 5806.0 5706.0 5868.0\n6836.0 5912.0 5930.0 5812.0 5706.0 5862.0\n6854.0 5888.0 5930.0 5806.0 5716.0 5866.0\n6858.0 5910.0 5932.0 5812.0 5720.0 5858.0\n6896.0 5914.0 5934.0 5826.0 5718.0 5874.0\n6902.0 5908.0 5950.0 5824.0 5722.0 5868.0\n6914.0 5922.0 5950.0 5838.0 5738.0 5866.0\n6944.0 5916.0 5954.0 5858.0 5752.0 5862.0\n6976.0 5918.0 5964.0 5880.0 5754.0 5872.0\n6996.0 5946.0 5970.0 5902.0 5772.0 5870.0\n7024.0 5914.0 5988.0 5934.0 5792.0 5872.0\n7062.0 5918.0 5994.0 5974.0 5808.0 5876.0\n7104.0 5922.0 5992.0 6004.0 5828.0 5870.0\n7190.0 5940.0 6016.0 6084.0 5860.0 5876.0\n7166.0 5944.0 6034.0 6122.0 5878.0 5868.0\n7166.0 5958.0 6034.0 6174.0 5914.0 5870.0\n7212.0 5958.0 6030.0 6228.0 5942.0 5874.0\n7166.0 5956.0 6040.0 6282.0 5986.0 5874.0\n7242.0 5958.0 6040.0 6312.0 6008.0 5872.0\n7254.0 5956.0 6044.0 6364.0 6048.0 5874.0\n7278.0 5952.0 6046.0 6410.0 6076.0 5876.0\n7324.0 5976.0 6060.0 6448.0 6116.0 5868.0\n7330.0 5974.0 6054.0 6440.0 6180.0 5880.0\n7338.0 5992.0 6058.0 6476.0 6188.0 5878.0\n7338.0 5980.0 6058.0 6490.0 6190.0 5878.0\n7336.0 5986.0 6066.0 6498.0 6214.0 5874.0\n7350.0 5994.0 6062.0 6510.0 6220.0 5886.0\n7336.0 5990.0 6054.0 6540.0 6222.0 5876.0\n7336.0 6006.0 6068.0 6530.0 6220.0 5868.0\n7330.0 5998.0 6058.0 6538.0 6218.0 5876.0\n7326.0 5996.0 6058.0 6532.0 6188.0 5868.0\n7334.0 5986.0 6066.0 6540.0 6190.0 5866.0\n7328.0 5998.0 6058.0 6534.0 6188.0 5866.0\n7334.0 5980.0 6068.0 6492.0 6190.0 5870.0\n7336.0 5988.0 6064.0 6460.0 6174.0 5868.0\n7332.0 5986.0 6060.0 6422.0 6162.0 5862.0\n7338.0 5968.0 6064.0 6390.0 6142.0 5856.0\n7330.0 5966.0 6054.0 6336.0 6110.0 5868.0\n7326.0 5962.0 6060.0 6314.0 6114.0 5858.0\n7282.0 5960.0 6048.0 6250.0 6060.0 5858.0\n7260.0 5950.0 6042.0 6194.0 6038.0 5864.0\n7232.0 5954.0 6028.0 6164.0 6006.0 5866.0\n7192.0 5950.0 6010.0 6078.0 5960.0 5862.0\n7122.0 5946.0 6000.0 6036.0 5920.0 5866.0\n7070.0 5944.0 5982.0 5990.0 5896.0 5872.0\n6952.0 5932.0 5966.0 5886.0 5810.0 5856.0\n6908.0 5932.0 5958.0 5874.0 5796.0 5866.0\n6852.0 5922.0 5950.0 5832.0 5742.0 5862.0\n6824.0 5908.0 5942.0 5836.0 5752.0 5868.0\n6778.0 5914.0 5942.0 5824.0 5736.0 5864.0\n6758.0 5890.0 5934.0 5814.0 5728.0 5866.0\n6728.0 5894.0 5944.0 5820.0 5726.0 5858.0\n6732.0 5908.0 5932.0 5818.0 5714.0 5856.0\n6726.0 5900.0 5942.0 5818.0 5710.0 5862.0\n6734.0 5898.0 5922.0 5806.0 5708.0 5862.0\n6724.0 5890.0 5930.0 5810.0 5702.0 5868.0\n6724.0 5902.0 5936.0 5844.0 5706.0 5858.0\n6736.0 5904.0 5934.0 5802.0 5708.0 5858.0\n6732.0 5898.0 5938.0 5806.0 5704.0 5862.0\n6734.0 5894.0 5932.0 5812.0 5706.0 5864.0\n6722.0 5904.0 5914.0 5804.0 5706.0 5874.0\n6736.0 5892.0 5926.0 5816.0 5710.0 5860.0\n6730.0 5892.0 5924.0 5822.0 5704.0 5868.0\n6726.0 5900.0 5934.0 5810.0 5702.0 5868.0\n6724.0 5898.0 5928.0 5818.0 5700.0 5858.0\n6736.0 5904.0 5932.0 5808.0 5710.0 5858.0\n6724.0 5904.0 5932.0 5808.0 5702.0 5862.0\n6734.0 5910.0 5922.0 5806.0 5708.0 5858.0\n6718.0 5888.0 5920.0 5816.0 5704.0 5864.0\n6734.0 5902.0 5934.0 5804.0 5702.0 5864.0\n6730.0 5904.0 5932.0 5802.0 5700.0 5860.0\n6736.0 5912.0 5930.0 5810.0 5704.0 5870.0\n6734.0 5906.0 5924.0 5812.0 5696.0 5864.0\n6734.0 5904.0 5910.0 5794.0 5690.0 5860.0\n6734.0 5894.0 5926.0 5816.0 5702.0 5862.0\n6730.0 5902.0 5926.0 5794.0 5702.0 5864.0\n6732.0 5902.0 5910.0 5798.0 5696.0 5860.0\n6722.0 5896.0 5930.0 5802.0 5702.0 5862.0\n6720.0 5898.0 5924.0 5804.0 5694.0 5870.0\n6724.0 5910.0 5918.0 5802.0 5700.0 5868.0\n6728.0 5908.0 5928.0 5818.0 5706.0 5864.0\n6726.0 5904.0 5918.0 5790.0 5696.0 5866.0\n6726.0 5890.0 5924.0 5798.0 5702.0 5860.0\n6720.0 5902.0 5926.0 5806.0 5700.0 5856.0\n6726.0 5908.0 5912.0 5812.0 5700.0 5868.0\n6720.0 5912.0 5926.0 5794.0 5700.0 5866.0\n6714.0 5902.0 5930.0 5824.0 5696.0 5862.0\n6726.0 5904.0 5928.0 5812.0 5698.0 5868.0\n6724.0 5900.0 5930.0 5806.0 5686.0 5866.0\n6724.0 5898.0 5914.0 5802.0 5696.0 5864.0\n6730.0 5892.0 5922.0 5806.0 5706.0 5864.0\n6724.0 5890.0 5920.0 5810.0 5696.0 5864.0\n6726.0 5900.0 5924.0 5802.0 5690.0 5866.0\n6718.0 5898.0 5922.0 5792.0 5692.0 5864.0\n6730.0 5900.0 5928.0 5808.0 5692.0 5866.0\n6730.0 5902.0 5924.0 5802.0 5704.0 5858.0\n6730.0 5898.0 5934.0 5804.0 5696.0 5866.0\n6730.0 5906.0 5926.0 5804.0 5706.0 5864.0\n6724.0 5898.0 5918.0 5798.0 5694.0 5862.0\n6730.0 5898.0 5912.0 5798.0 5696.0 5866.0\n6720.0 5906.0 5920.0 5804.0 5702.0 5856.0\n6736.0 5902.0 5926.0 5792.0 5696.0 5868.0\n6728.0 5902.0 5928.0 5800.0 5692.0 5864.0\n6716.0 5898.0 5924.0 5806.0 5700.0 5860.0\n6724.0 5894.0 5930.0 5814.0 5696.0 5870.0\n6728.0 5886.0 5920.0 5802.0 5700.0 5868.0\n6726.0 5902.0 5926.0 5814.0 5704.0 5866.0\n6734.0 5900.0 5934.0 5810.0 5700.0 5864.0\n6724.0 5896.0 5922.0 5802.0 5698.0 5862.0\n6730.0 5894.0 5934.0 5810.0 5706.0 5864.0\n6722.0 5906.0 5924.0 5804.0 5698.0 5870.0\n6722.0 5904.0 5924.0 5804.0 5696.0 5864.0\n6728.0 5910.0 5922.0 5802.0 5704.0 5866.0\n6728.0 5902.0 5934.0 5802.0 5704.0 5858.0\n6722.0 5912.0 5932.0 5792.0 5692.0 5868.0\n6732.0 5894.0 5920.0 5796.0 5696.0 5860.0\n6726.0 5896.0 5922.0 5796.0 5702.0 5862.0\n6740.0 5900.0 5922.0 5812.0 5702.0 5870.0\n6728.0 5906.0 5926.0 5804.0 5698.0 5864.0\n6718.0 5882.0 5918.0 5794.0 5704.0 5868.0\n6724.0 5896.0 5930.0 5806.0 5694.0 5866.0\n6726.0 5904.0 5924.0 5802.0 5698.0 5864.0\n6732.0 5906.0 5926.0 5798.0 5698.0 5858.0\n6724.0 5898.0 5930.0 5802.0 5698.0 5858.0\n6736.0 5902.0 5928.0 5804.0 5696.0 5858.0\n6734.0 5906.0 5932.0 5798.0 5694.0 5854.0\n6724.0 5896.0 5924.0 5806.0 5692.0 5872.0\n6728.0 5900.0 5922.0 5800.0 5698.0 5866.0\n6730.0 5894.0 5926.0 5802.0 5698.0 5856.0\n6728.0 5892.0 5926.0 5804.0 5694.0 5862.0\n6730.0 5896.0 5918.0 5798.0 5700.0 5860.0\n6730.0 5900.0 5924.0 5804.0 5696.0 5864.0\n6736.0 5910.0 5928.0 5796.0 5696.0 5848.0\n6728.0 5892.0 5920.0 5810.0 5698.0 5862.0\n6728.0 5896.0 5926.0 5800.0 5694.0 5866.0\n6726.0 5896.0 5930.0 5800.0 5702.0 5866.0\n6726.0 5900.0 5928.0 5812.0 5698.0 5866.0\n6732.0 5898.0 5922.0 5800.0 5696.0 5870.0\n6722.0 5898.0 5920.0 5796.0 5692.0 5878.0\n6726.0 5904.0 5918.0 5802.0 5696.0 5860.0\n6730.0 5900.0 5928.0 5802.0 5700.0 5868.0\n6728.0 5896.0 5914.0 5806.0 5694.0 5866.0\n6726.0 5898.0 5918.0 5804.0 5696.0 5858.0\n6726.0 5900.0 5918.0 5804.0 5698.0 5866.0\n6724.0 5900.0 5922.0 5798.0 5694.0 5864.0\n6730.0 5902.0 5922.0 5800.0 5700.0 5862.0\n6726.0 5898.0 5920.0 5798.0 5696.0 5864.0\n6730.0 5912.0 5926.0 5804.0 5700.0 5856.0\n6726.0 5904.0 5930.0 5806.0 5692.0 5866.0\n6726.0 5900.0 5926.0 5802.0 5694.0 5864.0\n6710.0 5902.0 5926.0 5804.0 5698.0 5868.0\n6732.0 5900.0 5924.0 5804.0 5696.0 5860.0\n6730.0 5906.0 5926.0 5802.0 5698.0 5870.0\n6732.0 5906.0 5924.0 5802.0 5708.0 5852.0\n6722.0 5904.0 5924.0 5800.0 5708.0 5864.0\n6722.0 5890.0 5924.0 5794.0 5694.0 5856.0\n6724.0 5896.0 5930.0 5812.0 5696.0 5864.0\n6726.0 5896.0 5914.0 5798.0 5696.0 5860.0\n6722.0 5898.0 5916.0 5798.0 5688.0 5860.0\n6730.0 5892.0 5928.0 5802.0 5690.0 5868.0\n6728.0 5898.0 5922.0 5804.0 5694.0 5866.0\n6728.0 5910.0 5930.0 5802.0 5698.0 5854.0\n6724.0 5902.0 5928.0 5802.0 5698.0 5878.0\n6724.0 5904.0 5924.0 5800.0 5700.0 5860.0\n6732.0 5906.0 5930.0 5804.0 5702.0 5860.0\n6720.0 5898.0 5924.0 5802.0 5700.0 5864.0\n6716.0 5898.0 5922.0 5798.0 5700.0 5862.0\n6734.0 5898.0 5926.0 5812.0 5700.0 5862.0\n6724.0 5906.0 5926.0 5800.0 5690.0 5872.0\n6734.0 5908.0 5930.0 5800.0 5690.0 5856.0\n6730.0 5900.0 5926.0 5810.0 5692.0 5872.0\n6724.0 5902.0 5928.0 5802.0 5694.0 5862.0\n6738.0 5906.0 5924.0 5792.0 5704.0 5862.0\n6724.0 5900.0 5914.0 5806.0 5704.0 5868.0\n6720.0 5890.0 5920.0 5804.0 5688.0 5860.0\n6716.0 5892.0 5924.0 5796.0 5700.0 5860.0\n6730.0 5900.0 5920.0 5810.0 5700.0 5868.0\n6714.0 5892.0 5920.0 5810.0 5690.0 5868.0\n6734.0 5892.0 5922.0 5808.0 5692.0 5862.0\n6722.0 5900.0 5924.0 5800.0 5696.0 5860.0\n6730.0 5892.0 5926.0 5800.0 5692.0 5866.0\n6732.0 5896.0 5926.0 5808.0 5694.0 5862.0\n6732.0 5920.0 5918.0 5802.0 5692.0 5864.0\n6726.0 5898.0 5924.0 5806.0 5698.0 5862.0\n6724.0 5894.0 5914.0 5804.0 5694.0 5864.0\n6724.0 5892.0 5922.0 5808.0 5698.0 5872.0\n6716.0 5894.0 5926.0 5802.0 5694.0 5858.0\n6726.0 5900.0 5958.0 5806.0 5696.0 5860.0\n6728.0 5886.0 5926.0 5794.0 5700.0 5866.0\n6726.0 5900.0 5924.0 5802.0 5694.0 5864.0\n6732.0 5904.0 5928.0 5794.0 5692.0 5862.0\n6730.0 5902.0 5930.0 5798.0 5696.0 5858.0\n6720.0 5902.0 5918.0 5804.0 5690.0 5862.0\n6716.0 5904.0 5930.0 5808.0 5696.0 5850.0\n6732.0 5894.0 5924.0 5806.0 5698.0 5864.0\n6732.0 5892.0 5930.0 5796.0 5690.0 5870.0\n6724.0 5894.0 5924.0 5794.0 5692.0 5856.0\n6722.0 5896.0 5922.0 5796.0 5696.0 5862.0\n6726.0 5896.0 5930.0 5806.0 5692.0 5864.0\n6730.0 5904.0 5924.0 5802.0 5694.0 5858.0\n6722.0 5906.0 5922.0 5774.0 5696.0 5864.0\n6726.0 5900.0 5922.0 5800.0 5702.0 5862.0\n6722.0 5904.0 5926.0 5806.0 5694.0 5866.0\n6734.0 5908.0 5926.0 5802.0 5702.0 5868.0\n6728.0 5892.0 5928.0 5798.0 5686.0 5862.0\n6722.0 5892.0 5924.0 5788.0 5694.0 5860.0\n6730.0 5908.0 5926.0 5802.0 5698.0 5858.0\n