6870.0 5910.0 5954.0 5798.0 5694.0 5870.0\n6880.0 5912.0 5962.0 5798.0 5690.0 5870.0\n6872.0 5924.0 5958.0 5812.0 5696.0 5864.0\n6874.0 5908.0 5956.0 5808.0 5694.0 5866.0\n6876.0 5906.0 5956.0 5808.0 5698.0 5860.0\n6876.0 5910.0 5940.0 5794.0 5696.0 5866.0\n6876.0 5914.0 5948.0 5806.0 5700.0 5860.0\n6874.0 5914.0 5954.0 5806.0 5706.0 5872.0\n6884.0 5918.0 5950.0 5808.0 5700.0 5866.0\n6882.0 5914.0 5956.0 5806.0 5700.0 5868.0\n6870.0 5912.0 5950.0 5800.0 5694.0 5868.0\n6876.0 5904.0 5956.0 5802.0 5696.0 5862.0\n6880.0 5920.0 5956.0 5810.0 5700.0 5868.0\n6876.0 5914.0 5954.0 5810.0 5690.0 5862.0\n6876.0 5922.0 5948.0 5802.0 5700.0 5864.0\n6878.0 5912.0 5950.0 5796.0 5688.0 5860.0\n6868.0 5906.0 5950.0 5806.0 5692.0 5866.0\n6874.0 5918.0 5952.0 5806.0 5696.0 5858.0\n6878.0 5920.0 5942.0 5806.0 5698.0 5870.0\n6868.0 5914.0 5956.0 5804.0 5698.0 5872.0\n6876.0 5920.0 5950.0 5808.0 5696.0 5868.0\n6880.0 5916.0 5950.0 5804.0 5702.0 5862.0\n6880.0 5912.0 5956.0 5806.0 5700.0 5864.0\n6880.0 5912.0 5954.0 5814.0 5700.0 5870.0\n6884.0 5916.0 5962.0 5802.0 5702.0 5866.0\n6880.0 5912.0 5958.0 5802.0 5694.0 5866.0\n6892.0 5922.0 5948.0 5814.0 5694.0 5866.0\n6892.0 5918.0 5956.0 5808.0 5688.0 5854.0\n6892.0 5922.0 5958.0 5812.0 5700.0 5860.0\n6898.0 5924.0 5950.0 5810.0 5704.0 5864.0\n6896.0 5922.0 5964.0 5812.0 5706.0 5876.0\n6894.0 5910.0 5958.0 5814.0 5716.0 5868.0\n6902.0 5922.0 5946.0 5804.0 5704.0 5862.0\n6886.0 5906.0 5962.0 5810.0 5720.0 5870.0\n6908.0 5924.0 5964.0 5810.0 5718.0 5860.0\n6944.0 5916.0 5980.0 5822.0 5708.0 5874.0\n7002.0 5912.0 5978.0 5848.0 5728.0 5864.0\n7008.0 5916.0 5978.0 5866.0 5740.0 5878.0\n7038.0 5930.0 5992.0 5902.0 5748.0 5870.0\n7042.0 5922.0 6006.0 5900.0 5762.0 5878.0\n7092.0 5926.0 6014.0 5952.0 5772.0 5876.0\n7092.0 5918.0 6020.0 5970.0 5768.0 5862.0\n7200.0 5920.0 6026.0 6016.0 5786.0 5862.0\n7164.0 5914.0 6040.0 6038.0 5792.0 5868.0\n7200.0 5928.0 6052.0 6082.0 5812.0 5862.0\n7166.0 5924.0 6060.0 6124.0 5816.0 5880.0\n7252.0 5932.0 6072.0 6170.0 5848.0 5874.0\n7310.0 5944.0 6092.0 6228.0 5874.0 5874.0\n7352.0 5954.0 6096.0 6294.0 5926.0 5872.0\n7370.0 5946.0 6108.0 6326.0 5950.0 5880.0\n7382.0 5966.0 6118.0 6396.0 6014.0 5880.0\n7382.0 5966.0 6112.0 6412.0 6018.0 5866.0\n7384.0 5960.0 6126.0 6480.0 6088.0 5878.0\n7436.0 5974.0 6130.0 6522.0 6126.0 5878.0\n7460.0 5970.0 6132.0 6588.0 6188.0 5878.0\n7468.0 5984.0 6128.0 6620.0 6214.0 5864.0\n7488.0 5988.0 6142.0 6646.0 6248.0 5884.0\n7482.0 6006.0 6152.0 6678.0 6274.0 5880.0\n7490.0 5992.0 6156.0 6698.0 6286.0 5868.0\n7500.0 6002.0 6158.0 6722.0 6292.0 5880.0\n7494.0 6004.0 6162.0 6738.0 6318.0 5886.0\n7494.0 6000.0 6156.0 6748.0 6314.0 5878.0\n7492.0 5996.0 6164.0 6752.0 6298.0 5878.0\n7498.0 5998.0 6154.0 6748.0 6296.0 5880.0\n7494.0 5996.0 6142.0 6746.0 6280.0 5880.0\n7496.0 5994.0 6162.0 6756.0 6280.0 5870.0\n7494.0 5988.0 6150.0 6748.0 6300.0 5874.0\n7496.0 5988.0 6156.0 6752.0 6316.0 5866.0\n7494.0 5994.0 6164.0 6748.0 6304.0 5872.0\n7504.0 5992.0 6160.0 6706.0 6298.0 5874.0\n7488.0 5994.0 6156.0 6666.0 6276.0 5872.0\n7496.0 5984.0 6158.0 6630.0 6270.0 5866.0\n7490.0 5978.0 6134.0 6542.0 6216.0 5860.0\n7478.0 5978.0 6130.0 6536.0 6202.0 5866.0\n7450.0 5976.0 6124.0 6466.0 6174.0 5868.0\n7452.0 5970.0 6124.0 6440.0 6138.0 5866.0\n7416.0 5968.0 6112.0 6370.0 6116.0 5872.0\n7374.0 5952.0 6106.0 6338.0 6082.0 5866.0\n7332.0 5954.0 6098.0 6280.0 6048.0 5868.0\n7308.0 5950.0 6086.0 6212.0 6006.0 5868.0\n7276.0 5942.0 6080.0 6158.0 5968.0 5860.0\n7206.0 5942.0 6060.0 6094.0 5912.0 5868.0\n7154.0 5946.0 6052.0 6046.0 5888.0 5858.0\n7070.0 5946.0 6024.0 5956.0 5822.0 5868.0\n7040.0 5930.0 6014.0 5938.0 5790.0 5864.0\n7000.0 5932.0 5992.0 5906.0 5774.0 5868.0\n6990.0 5922.0 5992.0 5884.0 5770.0 5866.0\n6946.0 5920.0 5990.0 5868.0 5748.0 5862.0\n6942.0 5910.0 5982.0 5876.0 5754.0 5868.0\n6906.0 5912.0 5986.0 5854.0 5740.0 5860.0\n6890.0 5914.0 5980.0 5848.0 5748.0 5860.0\n6898.0 5920.0 5976.0 5840.0 5728.0 5858.0\n6886.0 5914.0 5982.0 5838.0 5734.0 5872.0\n6880.0 5924.0 5978.0 5838.0 5726.0 5862.0\n6882.0 5914.0 5976.0 5824.0 5722.0 5862.0\n6882.0 5906.0 5970.0 5828.0 5720.0 5862.0\n6884.0 5916.0 5970.0 5816.0 5724.0 5856.0\n6880.0 5916.0 5968.0 5810.0 5726.0 5862.0\n6868.0 5920.0 5960.0 5830.0 5722.0 5860.0\n6888.0 5912.0 5972.0 5822.0 5718.0 5866.0\n6882.0 5912.0 5978.0 5822.0 5720.0 5858.0\n6876.0 5920.0 5970.0 5814.0 5724.0 5870.0\n6870.0 5924.0 5972.0 5818.0 5726.0 5862.0\n6874.0 5914.0 5958.0 5820.0 5718.0 5864.0\n6872.0 5910.0 5970.0 5804.0 5712.0 5868.0\n6874.0 5920.0 5970.0 5824.0 5704.0 5842.0\n6874.0 5912.0 5952.0 5822.0 5714.0 5868.0\n6882.0 5914.0 5962.0 5818.0 5714.0 5868.0\n6878.0 5902.0 5966.0 5816.0 5712.0 5866.0\n6870.0 5922.0 5960.0 5820.0 5710.0 5866.0\n6878.0 5914.0 5958.0 5802.0 5714.0 5870.0\n6874.0 5918.0 5966.0 5818.0 5710.0 5866.0\n6878.0 5904.0 5964.0 5810.0 5710.0 5868.0\n6882.0 5920.0 5958.0 5822.0 5702.0 5854.0\n6878.0 5912.0 5960.0 5808.0 5708.0 5866.0\n6874.0 5918.0 5966.0 5808.0 5708.0 5862.0\n6884.0 5908.0 5972.0 5820.0 5710.0 5862.0\n6876.0 5908.0 5964.0 5820.0 5706.0 5864.0\n6886.0 5912.0 5962.0 5814.0 5702.0 5862.0\n6886.0 5914.0 5972.0 5824.0 5704.0 5868.0\n6884.0 5916.0 5958.0 5810.0 5706.0 5862.0\n6882.0 5908.0 5954.0 5816.0 5704.0 5868.0\n6882.0 5906.0 5962.0 5802.0 5708.0 5866.0\n6874.0 5906.0 5972.0 5820.0 5708.0 5864.0\n6868.0 5898.0 5960.0 5814.0 5710.0 5864.0\n6880.0 5906.0 5968.0 5812.0 5712.0 5874.0\n6876.0 5906.0 5966.0 5816.0 5702.0 5858.0\n6882.0 5902.0 5958.0 5806.0 5702.0 5868.0\n6890.0 5908.0 5968.0 5814.0 5704.0 5860.0\n6870.0 5914.0 5960.0 5808.0 5706.0 5866.0\n6882.0 5910.0 5954.0 5822.0 5696.0 5872.0\n6874.0 5910.0 5954.0 5808.0 5700.0 5864.0\n6884.0 5910.0 5966.0 5810.0 5710.0 5862.0\n6876.0 5900.0 5960.0 5816.0 5698.0 5872.0\n6876.0 5902.0 5958.0 5810.0 5704.0 5862.0\n6874.0 5922.0 5964.0 5802.0 5704.0 5856.0\n6872.0 5898.0 5956.0 5814.0 5702.0 5858.0\n6880.0 5908.0 5958.0 5810.0 5702.0 5864.0\n6874.0 5902.0 5956.0 5818.0 5686.0 5862.0\n6876.0 5906.0 5966.0 5810.0 5708.0 5868.0\n6876.0 5910.0 5956.0 5808.0 5706.0 5866.0\n6874.0 5914.0 5958.0 5808.0 5700.0 5870.0\n6876.0 5906.0 5958.0 5814.0 5700.0 5866.0\n6884.0 5902.0 5966.0 5810.0 5700.0 5868.0\n6878.0 5912.0 5960.0 5822.0 5708.0 5864.0\n6878.0 5910.0 5964.0 5806.0 5704.0 5860.0\n6876.0 5912.0 5958.0 5816.0 5698.0 5864.0\n6872.0 5908.0 5956.0 5812.0 5696.0 5864.0\n6876.0 5912.0 5956.0 5818.0 5706.0 5864.0\n6872.0 5912.0 5956.0 5816.0 5704.0 5860.0\n6876.0 5906.0 5958.0 5816.0 5704.0 5866.0\n6882.0 5908.0 5958.0 5814.0 5702.0 5868.0\n6880.0 5910.0 5954.0 5812.0 5706.0 5862.0\n6872.0 5910.0 5956.0 5816.0 5702.0 5864.0\n6884.0 5918.0 5960.0 5814.0 5710.0 5862.0\n6878.0 5904.0 5990.0 5818.0 5704.0 5866.0\n6866.0 5906.0 5958.0 5810.0 5708.0 5864.0\n6878.0 5910.0 5956.0 5814.0 5704.0 5862.0\n6880.0 5914.0 5950.0 5820.0 5696.0 5860.0\n6876.0 5908.0 5964.0 5812.0 5710.0 5866.0\n6870.0 5908.0 5964.0 5804.0 5706.0 5870.0\n6880.0 5904.0 5958.0 5814.0 5704.0 5868.0\n6874.0 5908.0 5958.0 5804.0 5700.0 5856.0\n6870.0 5898.0 5952.0 5794.0 5700.0 5870.0\n6878.0 5906.0 5950.0 5806.0 5700.0 5862.0\n6878.0 5912.0 5958.0 5814.0 5698.0 5868.0\n6886.0 5900.0 5960.0 5806.0 5698.0 5860.0\n6884.0 5910.0 5944.0 5812.0 5702.0 5858.0\n6876.0 5914.0 5954.0 5814.0 5706.0 5870.0\n6878.0 5912.0 5950.0 5808.0 5706.0 5868.0\n6874.0 5912.0 5952.0 5816.0 5700.0 5870.0\n6872.0 5906.0 5962.0 5806.0 5700.0 5866.0\n6878.0 5898.0 5952.0 5810.0 5698.0 5858.0\n6878.0 5908.0 5956.0 5820.0 5702.0 5866.0\n6878.0 5908.0 5946.0 5810.0 5698.0 5860.0\n6882.0 5902.0 5954.0 5810.0 5704.0 5870.0\n6876.0 5902.0 5950.0 5812.0 5698.0 5858.0\n6878.0 5908.0 5952.0 5810.0 5700.0 5862.0\n6880.0 5914.0 5956.0 5800.0 5710.0 5860.0\n6884.0 5908.0 5958.0 5806.0 5700.0 5874.0\n6872.0 5908.0 5962.0 5812.0 5702.0 5860.0\n6882.0 5914.0 5956.0 5804.0 5694.0 5866.0\n6878.0 5902.0 5956.0 5804.0 5704.0 5868.0\n6886.0 5910.0 5948.0 5804.0 5704.0 5862.0\n6884.0 5912.0 5940.0 5806.0 5702.0 5866.0\n6884.0 5908.0 5962.0 5816.0 5700.0 5854.0\n6874.0 5914.0 5958.0 5814.0 5706.0 5872.0\n6886.0 5902.0 5948.0 5810.0 5696.0 5870.0\n6878.0 5908.0 5944.0 5806.0 5700.0 5846.0\n6878.0 5906.0 5946.0 5814.0 5694.0 5866.0\n6888.0 5896.0 5946.0 5816.0 5702.0 5868.0\n6876.0 5902.0 5956.0 5822.0 5706.0 5864.0\n6882.0 5900.0 5956.0 5804.0 5698.0 5862.0\n6878.0 5910.0 5952.0 5806.0 5698.0 5862.0\n6880.0 5904.0 5956.0 5806.0 5700.0 5872.0\n6882.0 5912.0 5946.0 5818.0 5704.0 5868.0\n6882.0 5900.0 5958.0 5808.0 5704.0 5868.0\n6882.0 5906.0 5954.0 5818.0 5706.0 5862.0\n6882.0 5914.0 5950.0 5812.0 5698.0 5866.0\n6876.0 5906.0 5958.0 5794.0 5698.0 5858.0\n6882.0 5904.0 5952.0 5822.0 5700.0 5858.0\n6880.0 5910.0 5952.0 5820.0 5690.0 5854.0\n6876.0 5906.0 5956.0 5814.0 5700.0 5864.0\n6890.0 5908.0 5958.0 5808.0 5698.0 5860.0\n6882.0 5908.0 5958.0 5808.0 5700.0 5866.0\n6880.0 5908.0 5958.0 5804.0 5696.0 5870.0\n6878.0 5902.0 5956.0 5806.0 5700.0 5870.0\n6882.0 5900.0 5950.0 5804.0 5710.0 5862.0\n6878.0 5918.0 5962.0 5802.0 5700.0 5854.0\n6876.0 5910.0 5946.0 5812.0 5696.0 5864.0\n6872.0 5918.0 5954.0 5812.0 5698.0 5856.0\n6884.0 5912.0 5950.0 5814.0 5708.0 5868.0\n6878.0 5912.0 5962.0 5808.0 5694.0 5868.0\n6876.0 5898.0 5958.0 5808.0 5708.0 5860.0\n6876.0 5902.0 5950.0 5806.0 5708.0 5866.0\n6874.0 5906.0 5956.0 5810.0 5704.0 5864.0\n6880.0 5914.0 5954.0 5804.0 5708.0 5866.0\n6886.0 5902.0 5958.0 5808.0 5708.0 5866.0\n6874.0 5902.0 5946.0 5804.0 5696.0 5866.0\n6882.0 5910.0 5956.0 5810.0 5700.0 5868.0\n6878.0 5906.0 5958.0 5814.0 5708.0 5864.0\n6874.0 5906.0 5952.0 5814.0 5698.0 5864.0\n6882.0 5912.0 5958.0 5814.0 5692.0 5856.0\n6876.0 5904.0 5956.0 5808.0 5696.0 5866.0\n6874.0 5908.0 5958.0 5798.0 5698.0 5862.0\n6870.0 5908.0 5956.0 5804.0 5700.0 5864.0\n6882.0 5914.0 5948.0 5808.0 5700.0 5868.0\n6878.0 5892.0 5956.0 5812.0 5696.0 5860.0\n6882.0 5912.0 5958.0 5810.0 5694.0 5854.0\n6874.0 5910.0 5954.0 5810.0 5704.0 5866.0\n6876.0 5904.0 5950.0 5804.0 5696.0 5856.0\n6870.0 5910.0 5960.0 5814.0 5710.0 5862.0\n6878.0 5902.0 5962.0 5806.0 5708.0 5866.0\n6876.0 5912.0 5954.0 5796.0 5698.0 5860.0\n6874.0 5912.0 5952.0 5814.0 5694.0 5850.0\n6872.0 5904.0 5958.0 5804.0 5704.0 5860.0\n6878.0 5918.0 5952.0 5796.0 5700.0 5858.0\n6878.0 5900.0 5950.0 5816.0 5706.0 5864.0\n6882.0 5908.0 5962.0 5802.0 5710.0 5872.0\n6880.0 5912.0 5958.0 5810.0 5700.0 5866.0\n6874.0 5908.0 5952.0 5810.0 5696.0 5862.0\n6882.0 5908.0 5956.0 5792.0 5700.0 5868.0\n6888.0 5904.0 5952.0 5818.0 5704.0 5864.0\n6878.0 5900.0 5950.0 5800.0 5702.0 5858.0\n6880.0 5902.0 5952.0 5802.0 5702.0 5866.0\n6882.0 5908.0 5956.0 5804.0 5712.0 5870.0\n