6784.0 5898.0 5938.0 5808.0 5702.0 5866.0\n6776.0 5914.0 5918.0 5804.0 5700.0 5862.0\n6778.0 5896.0 5922.0 5814.0 5702.0 5874.0\n6776.0 5898.0 5926.0 5810.0 5702.0 5858.0\n6784.0 5906.0 5928.0 5792.0 5704.0 5860.0\n6778.0 5908.0 5918.0 5808.0 5698.0 5876.0\n6780.0 5894.0 5924.0 5806.0 5696.0 5862.0\n6778.0 5898.0 5922.0 5804.0 5704.0 5852.0\n6780.0 5894.0 5922.0 5802.0 5698.0 5864.0\n6780.0 5900.0 5920.0 5796.0 5712.0 5860.0\n6770.0 5900.0 5916.0 5808.0 5700.0 5868.0\n6776.0 5900.0 5930.0 5804.0 5698.0 5870.0\n6780.0 5898.0 5930.0 5804.0 5690.0 5866.0\n6774.0 5910.0 5914.0 5800.0 5696.0 5868.0\n6770.0 5902.0 5926.0 5808.0 5704.0 5868.0\n6782.0 5904.0 5918.0 5810.0 5700.0 5872.0\n6776.0 5894.0 5920.0 5808.0 5708.0 5852.0\n6784.0 5902.0 5922.0 5806.0 5696.0 5860.0\n6782.0 5894.0 5926.0 5808.0 5704.0 5864.0\n6768.0 5896.0 5926.0 5806.0 5714.0 5858.0\n6794.0 5900.0 5924.0 5802.0 5704.0 5858.0\n6774.0 5894.0 5926.0 5800.0 5700.0 5860.0\n6788.0 5904.0 5928.0 5812.0 5706.0 5866.0\n6778.0 5892.0 5918.0 5806.0 5704.0 5868.0\n6800.0 5902.0 5924.0 5802.0 5708.0 5860.0\n6784.0 5900.0 5920.0 5808.0 5704.0 5868.0\n6800.0 5910.0 5926.0 5812.0 5714.0 5864.0\n6816.0 5912.0 5914.0 5808.0 5724.0 5858.0\n6826.0 5910.0 5924.0 5810.0 5708.0 5856.0\n6828.0 5908.0 5926.0 5814.0 5720.0 5868.0\n6842.0 5908.0 5914.0 5792.0 5720.0 5874.0\n6850.0 5900.0 5930.0 5810.0 5714.0 5866.0\n6846.0 5912.0 5926.0 5822.0 5710.0 5866.0\n6862.0 5912.0 5932.0 5816.0 5720.0 5866.0\n6888.0 5898.0 5928.0 5832.0 5728.0 5858.0\n6906.0 5906.0 5946.0 5814.0 5732.0 5866.0\n6956.0 5918.0 5948.0 5860.0 5762.0 5868.0\n6986.0 5932.0 5954.0 5870.0 5774.0 5870.0\n6994.0 5932.0 5970.0 5908.0 5784.0 5864.0\n7022.0 5928.0 5966.0 5924.0 5806.0 5878.0\n7070.0 5918.0 5992.0 5968.0 5828.0 5876.0\n7084.0 5922.0 5994.0 6020.0 5842.0 5874.0\n7122.0 5918.0 6002.0 6068.0 5870.0 5882.0\n7152.0 5930.0 6016.0 6108.0 5878.0 5880.0\n7266.0 5954.0 6034.0 6198.0 5916.0 5876.0\n7320.0 5958.0 6050.0 6244.0 5944.0 5880.0\n7350.0 5962.0 6060.0 6288.0 6004.0 5878.0\n7344.0 5970.0 6062.0 6376.0 6096.0 5878.0\n7350.0 5970.0 6068.0 6468.0 6140.0 5884.0\n7382.0 5986.0 6078.0 6546.0 6206.0 5880.0\n7414.0 5996.0 6078.0 6618.0 6242.0 5880.0\n7442.0 5988.0 6086.0 6666.0 6278.0 5882.0\n7462.0 6004.0 6086.0 6688.0 6288.0 5878.0\n7486.0 6014.0 6082.0 6698.0 6298.0 5892.0\n7482.0 6024.0 6086.0 6688.0 6322.0 5886.0\n7484.0 6016.0 6096.0 6702.0 6332.0 5888.0\n7466.0 6024.0 6088.0 6702.0 6328.0 5880.0\n7470.0 6026.0 6094.0 6702.0 6316.0 5880.0\n7464.0 6020.0 6090.0 6700.0 6298.0 5888.0\n7462.0 6016.0 6082.0 6686.0 6284.0 5882.0\n7452.0 6014.0 6086.0 6690.0 6290.0 5876.0\n7450.0 6004.0 6086.0 6688.0 6276.0 5874.0\n7452.0 6006.0 6094.0 6688.0 6276.0 5876.0\n7446.0 6002.0 6084.0 6586.0 6274.0 5874.0\n7442.0 6000.0 6086.0 6558.0 6248.0 5878.0\n7434.0 5968.0 6090.0 6488.0 6236.0 5872.0\n7398.0 5966.0 6092.0 6462.0 6204.0 5870.0\n7368.0 5958.0 6078.0 6398.0 6184.0 5862.0\n7348.0 5968.0 6070.0 6340.0 6162.0 5868.0\n7326.0 5962.0 6066.0 6298.0 6130.0 5868.0\n7292.0 5952.0 6056.0 6240.0 6088.0 5868.0\n7282.0 5958.0 6046.0 6186.0 6060.0 5866.0\n7240.0 5942.0 6038.0 6132.0 6022.0 5868.0\n7200.0 5936.0 6018.0 6078.0 5990.0 5868.0\n7150.0 5936.0 6016.0 6030.0 5940.0 5868.0\n7096.0 5920.0 5994.0 5938.0 5868.0 5870.0\n7066.0 5924.0 5996.0 5922.0 5836.0 5860.0\n7036.0 5930.0 5984.0 5868.0 5790.0 5860.0\n7008.0 5930.0 5974.0 5860.0 5786.0 5808.0\n6936.0 5920.0 5960.0 5862.0 5770.0 5862.0\n6882.0 5894.0 5948.0 5850.0 5770.0 5868.0\n6892.0 5900.0 5942.0 5856.0 5754.0 5866.0\n6904.0 5920.0 5948.0 5854.0 5752.0 5864.0\n6902.0 5912.0 5942.0 5862.0 5740.0 5872.0\n6910.0 5896.0 5950.0 5858.0 5744.0 5864.0\n6910.0 5922.0 5948.0 5838.0 5726.0 5850.0\n6898.0 5908.0 5938.0 5834.0 5742.0 5870.0\n6906.0 5918.0 5950.0 5824.0 5732.0 5866.0\n6898.0 5912.0 5954.0 5826.0 5738.0 5866.0\n6898.0 5922.0 5934.0 5824.0 5732.0 5860.0\n6894.0 5912.0 5938.0 5822.0 5732.0 5862.0\n6862.0 5908.0 5936.0 5834.0 5730.0 5862.0\n6848.0 5902.0 5930.0 5822.0 5728.0 5862.0\n6864.0 5916.0 5940.0 5826.0 5730.0 5866.0\n6860.0 5914.0 5930.0 5828.0 5722.0 5862.0\n6860.0 5910.0 5942.0 5828.0 5726.0 5864.0\n6856.0 5918.0 5930.0 5826.0 5722.0 5872.0\n6870.0 5922.0 5926.0 5832.0 5724.0 5862.0\n6862.0 5916.0 5936.0 5824.0 5712.0 5864.0\n6844.0 5914.0 5938.0 5820.0 5716.0 5860.0\n6854.0 5918.0 5932.0 5832.0 5724.0 5870.0\n6846.0 5898.0 5938.0 5820.0 5716.0 5866.0\n6830.0 5922.0 5930.0 5824.0 5718.0 5868.0\n6836.0 5910.0 5934.0 5822.0 5722.0 5866.0\n6828.0 5914.0 5926.0 5824.0 5714.0 5854.0\n6856.0 5910.0 5928.0 5824.0 5708.0 5852.0\n6822.0 5910.0 5934.0 5824.0 5712.0 5860.0\n6826.0 5910.0 5934.0 5822.0 5724.0 5866.0\n6822.0 5916.0 5930.0 5812.0 5714.0 5872.0\n6830.0 5912.0 5934.0 5820.0 5720.0 5868.0\n6826.0 5912.0 5930.0 5828.0 5704.0 5864.0\n6822.0 5908.0 5934.0 5822.0 5712.0 5862.0\n6838.0 5910.0 5932.0 5828.0 5702.0 5868.0\n6818.0 5894.0 5932.0 5826.0 5700.0 5870.0\n6830.0 5908.0 5934.0 5822.0 5702.0 5860.0\n6816.0 5914.0 5934.0 5806.0 5710.0 5866.0\n6830.0 5912.0 5918.0 5818.0 5712.0 5862.0\n6824.0 5912.0 5922.0 5820.0 5708.0 5858.0\n6824.0 5908.0 5934.0 5810.0 5710.0 5868.0\n6820.0 5914.0 5932.0 5818.0 5700.0 5860.0\n6824.0 5914.0 5918.0 5812.0 5710.0 5862.0\n6824.0 5918.0 5934.0 5812.0 5712.0 5864.0\n6822.0 5902.0 5934.0 5810.0 5710.0 5866.0\n6810.0 5906.0 5932.0 5818.0 5724.0 5866.0\n6822.0 5906.0 5926.0 5814.0 5706.0 5870.0\n6822.0 5906.0 5926.0 5824.0 5714.0 5866.0\n6816.0 5920.0 5922.0 5818.0 5708.0 5862.0\n6820.0 5918.0 5924.0 5808.0 5706.0 5874.0\n6816.0 5908.0 5926.0 5814.0 5704.0 5860.0\n6820.0 5902.0 5924.0 5816.0 5700.0 5860.0\n6818.0 5914.0 5930.0 5820.0 5706.0 5866.0\n6824.0 5910.0 5932.0 5818.0 5706.0 5868.0\n6818.0 5914.0 5924.0 5814.0 5710.0 5870.0\n6818.0 5914.0 5922.0 5820.0 5710.0 5862.0\n6812.0 5916.0 5932.0 5822.0 5706.0 5868.0\n6810.0 5912.0 5920.0 5818.0 5712.0 5862.0\n6816.0 5916.0 5936.0 5820.0 5718.0 5860.0\n6814.0 5920.0 5932.0 5818.0 5716.0 5864.0\n6792.0 5904.0 5928.0 5810.0 5694.0 5864.0\n6792.0 5916.0 5926.0 5812.0 5704.0 5870.0\n6794.0 5912.0 5924.0 5810.0 5714.0 5866.0\n6788.0 5916.0 5932.0 5796.0 5696.0 5866.0\n6796.0 5908.0 5924.0 5824.0 5712.0 5862.0\n6796.0 5904.0 5932.0 5812.0 5702.0 5870.0\n6792.0 5912.0 5938.0 5806.0 5706.0 5864.0\n6796.0 5908.0 5936.0 5814.0 5710.0 5860.0\n6796.0 5910.0 5926.0 5816.0 5708.0 5864.0\n6792.0 5910.0 5926.0 5812.0 5702.0 5862.0\n6798.0 5908.0 5930.0 5806.0 5708.0 5872.0\n6792.0 5916.0 5926.0 5810.0 5700.0 5864.0\n6790.0 5918.0 5936.0 5806.0 5708.0 5860.0\n6794.0 5914.0 5922.0 5814.0 5698.0 5870.0\n6798.0 5902.0 5936.0 5802.0 5708.0 5872.0\n6794.0 5904.0 5920.0 5816.0 5708.0 5868.0\n6788.0 5908.0 5924.0 5798.0 5698.0 5862.0\n6796.0 5904.0 5926.0 5810.0 5702.0 5868.0\n6794.0 5902.0 5930.0 5814.0 5706.0 5862.0\n6796.0 5910.0 5924.0 5818.0 5710.0 5860.0\n6786.0 5916.0 5932.0 5810.0 5702.0 5866.0\n6782.0 5904.0 5926.0 5826.0 5700.0 5854.0\n6788.0 5908.0 5912.0 5794.0 5706.0 5866.0\n6782.0 5914.0 5924.0 5820.0 5708.0 5862.0\n6778.0 5908.0 5930.0 5802.0 5704.0 5866.0\n6794.0 5902.0 5926.0 5810.0 5704.0 5860.0\n6786.0 5908.0 5930.0 5816.0 5704.0 5868.0\n6800.0 5920.0 5922.0 5798.0 5710.0 5864.0\n6798.0 5910.0 5916.0 5818.0 5706.0 5860.0\n6786.0 5910.0 5924.0 5800.0 5704.0 5860.0\n6788.0 5908.0 5936.0 5800.0 5710.0 5866.0\n6790.0 5914.0 5936.0 5820.0 5708.0 5858.0\n6792.0 5908.0 5930.0 5818.0 5712.0 5872.0\n6786.0 5912.0 5922.0 5818.0 5710.0 5862.0\n6788.0 5916.0 5930.0 5816.0 5706.0 5862.0\n6790.0 5908.0 5922.0 5812.0 5704.0 5866.0\n6796.0 5912.0 5940.0 5812.0 5708.0 5874.0\n6792.0 5910.0 5924.0 5814.0 5696.0 5862.0\n6790.0 5910.0 5930.0 5812.0 5708.0 5858.0\n6786.0 5896.0 5930.0 5824.0 5712.0 5862.0\n6786.0 5914.0 5934.0 5810.0 5708.0 5860.0\n6790.0 5908.0 5930.0 5818.0 5712.0 5860.0\n6796.0 5906.0 5918.0 5818.0 5702.0 5868.0\n6798.0 5910.0 5924.0 5816.0 5704.0 5860.0\n6792.0 5912.0 5928.0 5804.0 5708.0 5864.0\n6790.0 5902.0 5920.0 5812.0 5704.0 5866.0\n6786.0 5906.0 5926.0 5814.0 5706.0 5870.0\n6796.0 5910.0 5926.0 5812.0 5704.0 5870.0\n6796.0 5908.0 5926.0 5814.0 5716.0 5860.0\n6794.0 5912.0 5928.0 5816.0 5700.0 5866.0\n6790.0 5908.0 5928.0 5812.0 5700.0 5856.0\n6792.0 5912.0 5922.0 5814.0 5700.0 5866.0\n6794.0 5918.0 5920.0 5806.0 5702.0 5862.0\n6794.0 5908.0 5926.0 5816.0 5704.0 5860.0\n6792.0 5908.0 5926.0 5814.0 5700.0 5862.0\n6792.0 5916.0 5922.0 5806.0 5700.0 5862.0\n6794.0 5908.0 5924.0 5804.0 5696.0 5852.0\n6794.0 5902.0 5938.0 5812.0 5708.0 5856.0\n6790.0 5908.0 5924.0 5814.0 5694.0 5862.0\n6792.0 5906.0 5938.0 5812.0 5700.0 5866.0\n6788.0 5900.0 5922.0 5806.0 5700.0 5860.0\n6790.0 5908.0 5932.0 5810.0 5696.0 5856.0\n6792.0 5906.0 5930.0 5812.0 5704.0 5872.0\n6798.0 5902.0 5932.0 5800.0 5698.0 5864.0\n6780.0 5908.0 5932.0 5802.0 5706.0 5862.0\n6790.0 5900.0 5928.0 5820.0 5702.0 5864.0\n6786.0 5910.0 5924.0 5814.0 5708.0 5870.0\n6782.0 5906.0 5922.0 5810.0 5698.0 5866.0\n6768.0 5906.0 5920.0 5814.0 5704.0 5862.0\n6772.0 5914.0 5928.0 5812.0 5700.0 5860.0\n6782.0 5898.0 5924.0 5808.0 5700.0 5866.0\n6778.0 5912.0 5920.0 5804.0 5694.0 5834.0\n6786.0 5914.0 5918.0 5814.0 5706.0 5864.0\n6776.0 5910.0 5932.0 5810.0 5698.0 5862.0\n6792.0 5912.0 5936.0 5804.0 5694.0 5862.0\n6778.0 5912.0 5928.0 5804.0 5706.0 5870.0\n6778.0 5900.0 5922.0 5808.0 5706.0 5868.0\n6778.0 5904.0 5924.0 5798.0 5698.0 5868.0\n6778.0 5902.0 5932.0 5816.0 5706.0 5874.0\n6764.0 5902.0 5924.0 5810.0 5704.0 5858.0\n6780.0 5910.0 5920.0 5808.0 5702.0 5860.0\n6776.0 5898.0 5928.0 5810.0 5700.0 5864.0\n6778.0 5914.0 5926.0 5798.0 5706.0 5860.0\n6764.0 5912.0 5934.0 5824.0 5706.0 5866.0\n6774.0 5910.0 5928.0 5812.0 5710.0 5860.0\n6780.0 5920.0 5922.0 5808.0 5710.0 5862.0\n6776.0 5906.0 5920.0 5810.0 5706.0 5870.0\n6782.0 5910.0 5932.0 5800.0 5702.0 5858.0\n6786.0 5900.0 5928.0 5808.0 5698.0 5862.0\n6776.0 5914.0 5916.0 5812.0 5700.0 5862.0\n6776.0 5910.0 5932.0 5804.0 5704.0 5868.0\n6780.0 5902.0 5926.0 5802.0 5694.0 5858.0\n6780.0 5910.0 5920.0 5802.0 5700.0 5864.0\n6784.0 5910.0 5924.0 5814.0 5700.0 5864.0\n6776.0 5904.0 5922.0 5806.0 5696.0 5862.0\n6784.0 5908.0 5926.0 5798.0 5710.0 5862.0\n6778.0 5908.0 5920.0 5804.0 5700.0 5874.0\n6772.0 5904.0 5926.0 5812.0 5702.0 5862.0\n6778.0 5906.0 5926.0 5804.0 5702.0 5872.0\n6780.0 5914.0 5926.0 5806.0 5698.0 5856.0\n6782.0 5908.0 5920.0 5802.0 5700.0 5860.0\n6782.0 5892.0 5914.0 5806.0 5704.0 5864.0\n6782.0 5916.0 5926.0 5808.0 5700.0 5862.0\n6770.0 5912.0 5926.0 5806.0 5696.0 5870.0\n6774.0 5912.0 5928.0 5804.0 5700.0 5866.0\n6778.0 5904.0 5922.0 5798.0 5698.0 5868.0\n6776.0 5898.0 5928.0 5816.0 5694.0 5866.0\n6780.0 5906.0 5934.0 5798.0 5700.0 5862.0\n