6738.0 5910.0 5932.0 5796.0 5694.0 5866.0\n6722.0 5912.0 5918.0 5798.0 5700.0 5860.0\n6740.0 5924.0 5914.0 5792.0 5692.0 5866.0\n6734.0 5926.0 5916.0 5788.0 5694.0 5868.0\n6742.0 5910.0 5930.0 5794.0 5684.0 5868.0\n6724.0 5918.0 5918.0 5800.0 5696.0 5858.0\n6736.0 5910.0 5922.0 5798.0 5696.0 5858.0\n6728.0 5928.0 5918.0 5800.0 5688.0 5862.0\n6730.0 5916.0 5908.0 5792.0 5694.0 5868.0\n6734.0 5910.0 5918.0 5798.0 5696.0 5854.0\n6728.0 5916.0 5916.0 5786.0 5686.0 5860.0\n6734.0 5912.0 5928.0 5802.0 5692.0 5856.0\n6732.0 5918.0 5914.0 5792.0 5694.0 5856.0\n6740.0 5932.0 5916.0 5796.0 5694.0 5870.0\n6736.0 5922.0 5922.0 5794.0 5696.0 5860.0\n6732.0 5924.0 5924.0 5796.0 5694.0 5858.0\n6740.0 5928.0 5920.0 5794.0 5696.0 5858.0\n6728.0 5922.0 5924.0 5796.0 5692.0 5862.0\n6740.0 5920.0 5914.0 5792.0 5690.0 5854.0\n6736.0 5920.0 5916.0 5794.0 5702.0 5860.0\n6740.0 5916.0 5912.0 5798.0 5698.0 5864.0\n6738.0 5920.0 5922.0 5794.0 5690.0 5864.0\n6726.0 5930.0 5910.0 5798.0 5696.0 5868.0\n6732.0 5922.0 5920.0 5796.0 5700.0 5864.0\n6738.0 5914.0 5920.0 5786.0 5684.0 5870.0\n6742.0 5920.0 5928.0 5788.0 5696.0 5864.0\n6736.0 5922.0 5922.0 5796.0 5698.0 5862.0\n6734.0 5916.0 5918.0 5798.0 5692.0 5864.0\n6734.0 5924.0 5918.0 5792.0 5694.0 5858.0\n6742.0 5922.0 5924.0 5788.0 5698.0 5856.0\n6738.0 5926.0 5926.0 5802.0 5690.0 5862.0\n6748.0 5926.0 5924.0 5798.0 5694.0 5866.0\n6746.0 5920.0 5926.0 5800.0 5692.0 5862.0\n6742.0 5918.0 5920.0 5798.0 5694.0 5872.0\n6746.0 5922.0 5914.0 5810.0 5688.0 5868.0\n6744.0 5926.0 5920.0 5800.0 5700.0 5850.0\n6752.0 5924.0 5926.0 5800.0 5702.0 5868.0\n6774.0 5926.0 5924.0 5812.0 5692.0 5860.0\n6796.0 5930.0 5926.0 5802.0 5702.0 5864.0\n6794.0 5930.0 5938.0 5810.0 5712.0 5868.0\n6820.0 5932.0 5942.0 5810.0 5716.0 5874.0\n6840.0 5926.0 5940.0 5826.0 5722.0 5870.0\n6846.0 5930.0 5948.0 5832.0 5718.0 5872.0\n6872.0 5934.0 5964.0 5844.0 5736.0 5866.0\n6912.0 5940.0 5954.0 5860.0 5748.0 5862.0\n6912.0 5940.0 5962.0 5870.0 5752.0 5862.0\n6960.0 5928.0 5978.0 5906.0 5766.0 5876.0\n6994.0 5936.0 5980.0 5928.0 5782.0 5876.0\n7018.0 5930.0 6000.0 5964.0 5798.0 5868.0\n7056.0 5934.0 6014.0 6030.0 5826.0 5872.0\n7068.0 5954.0 6020.0 6080.0 5838.0 5870.0\n7132.0 5950.0 6030.0 6100.0 5846.0 5880.0\n7210.0 5954.0 6034.0 6110.0 5878.0 5868.0\n7166.0 5964.0 6048.0 6174.0 5926.0 5874.0\n7210.0 5954.0 6044.0 6208.0 5952.0 5874.0\n7248.0 5962.0 6044.0 6276.0 5996.0 5864.0\n7264.0 5992.0 6056.0 6312.0 6046.0 5882.0\n7296.0 5990.0 6056.0 6366.0 6086.0 5872.0\n7326.0 5978.0 6072.0 6422.0 6126.0 5874.0\n7356.0 5980.0 6082.0 6486.0 6190.0 5872.0\n7362.0 6004.0 6086.0 6494.0 6206.0 5882.0\n7362.0 6004.0 6082.0 6510.0 6236.0 5878.0\n7366.0 6014.0 6072.0 6528.0 6240.0 5870.0\n7370.0 6016.0 6086.0 6534.0 6260.0 5876.0\n7404.0 6012.0 6078.0 6534.0 6266.0 5878.0\n7402.0 6012.0 6082.0 6558.0 6258.0 5878.0\n7396.0 6010.0 6086.0 6588.0 6270.0 5884.0\n7402.0 6018.0 6082.0 6596.0 6268.0 5880.0\n7390.0 6016.0 6082.0 6594.0 6256.0 5882.0\n7380.0 6016.0 6088.0 6594.0 6252.0 5874.0\n7386.0 6004.0 6076.0 6590.0 6238.0 5862.0\n7378.0 6004.0 6086.0 6590.0 6234.0 5876.0\n7370.0 6008.0 6078.0 6586.0 6228.0 5874.0\n7370.0 6000.0 6082.0 6578.0 6206.0 5878.0\n7372.0 6000.0 6070.0 6532.0 6210.0 5868.0\n7370.0 6016.0 6064.0 6490.0 6186.0 5872.0\n7366.0 5994.0 6058.0 6398.0 6136.0 5860.0\n7322.0 5990.0 6064.0 6368.0 6130.0 5866.0\n7320.0 5980.0 6056.0 6316.0 6086.0 5864.0\n7310.0 5952.0 6056.0 6300.0 6082.0 5864.0\n7280.0 5978.0 6046.0 6254.0 6046.0 5860.0\n7252.0 5974.0 6056.0 6218.0 6018.0 5870.0\n7252.0 5968.0 6032.0 6174.0 5994.0 5872.0\n7208.0 5968.0 6022.0 6142.0 5976.0 5856.0\n7186.0 5958.0 6024.0 6106.0 5950.0 5858.0\n7162.0 5960.0 6012.0 6076.0 5914.0 5868.0\n7106.0 5938.0 6016.0 6026.0 5882.0 5860.0\n7098.0 5934.0 6000.0 6018.0 5866.0 5866.0\n7068.0 5960.0 5996.0 5972.0 5844.0 5866.0\n7054.0 5942.0 5986.0 5962.0 5830.0 5864.0\n7012.0 5938.0 5984.0 5934.0 5806.0 5856.0\n7004.0 5938.0 5974.0 5922.0 5792.0 5864.0\n6940.0 5942.0 5970.0 5874.0 5772.0 5862.0\n6916.0 5940.0 5964.0 5862.0 5750.0 5870.0\n6882.0 5940.0 5958.0 5842.0 5740.0 5862.0\n6860.0 5938.0 5950.0 5832.0 5732.0 5860.0\n6818.0 5922.0 5938.0 5830.0 5720.0 5850.0\n6794.0 5930.0 5948.0 5818.0 5702.0 5866.0\n6752.0 5926.0 5938.0 5818.0 5702.0 5858.0\n6756.0 5918.0 5930.0 5814.0 5700.0 5858.0\n6728.0 5922.0 5934.0 5810.0 5706.0 5866.0\n6728.0 5920.0 5934.0 5782.0 5696.0 5856.0\n6732.0 5918.0 5922.0 5806.0 5702.0 5864.0\n6706.0 5906.0 5922.0 5800.0 5692.0 5854.0\n6696.0 5916.0 5928.0 5804.0 5690.0 5852.0\n6704.0 5918.0 5928.0 5798.0 5694.0 5862.0\n6706.0 5918.0 5918.0 5806.0 5696.0 5870.0\n6704.0 5914.0 5938.0 5796.0 5696.0 5862.0\n6680.0 5912.0 5924.0 5806.0 5696.0 5854.0\n6686.0 5918.0 5926.0 5794.0 5704.0 5858.0\n6684.0 5908.0 5926.0 5804.0 5684.0 5860.0\n6690.0 5906.0 5922.0 5790.0 5686.0 5864.0\n6680.0 5916.0 5916.0 5798.0 5702.0 5852.0\n6682.0 5914.0 5924.0 5782.0 5694.0 5864.0\n6678.0 5914.0 5918.0 5802.0 5694.0 5864.0\n6684.0 5920.0 5926.0 5782.0 5696.0 5862.0\n6678.0 5908.0 5920.0 5798.0 5694.0 5864.0\n6674.0 5916.0 5924.0 5804.0 5688.0 5866.0\n6672.0 5914.0 5920.0 5798.0 5696.0 5866.0\n6674.0 5920.0 5922.0 5800.0 5678.0 5862.0\n6674.0 5918.0 5916.0 5804.0 5690.0 5856.0\n6678.0 5910.0 5924.0 5806.0 5690.0 5860.0\n6666.0 5918.0 5920.0 5792.0 5694.0 5866.0\n6668.0 5914.0 5934.0 5800.0 5686.0 5860.0\n6680.0 5916.0 5916.0 5802.0 5688.0 5858.0\n6676.0 5924.0 5914.0 5794.0 5680.0 5856.0\n6670.0 5920.0 5924.0 5800.0 5688.0 5866.0\n6680.0 5918.0 5920.0 5792.0 5690.0 5862.0\n6674.0 5920.0 5924.0 5786.0 5678.0 5854.0\n6676.0 5908.0 5922.0 5796.0 5694.0 5868.0\n6682.0 5914.0 5928.0 5798.0 5688.0 5860.0\n6682.0 5912.0 5922.0 5790.0 5694.0 5866.0\n6678.0 5924.0 5918.0 5802.0 5690.0 5858.0\n6682.0 5918.0 5914.0 5794.0 5700.0 5862.0\n6686.0 5920.0 5918.0 5796.0 5688.0 5860.0\n6682.0 5912.0 5932.0 5786.0 5688.0 5858.0\n6680.0 5920.0 5922.0 5800.0 5692.0 5846.0\n6678.0 5896.0 5918.0 5794.0 5688.0 5870.0\n6682.0 5912.0 5924.0 5804.0 5684.0 5866.0\n6682.0 5918.0 5926.0 5790.0 5690.0 5858.0\n6688.0 5908.0 5924.0 5788.0 5684.0 5870.0\n6676.0 5926.0 5922.0 5802.0 5696.0 5860.0\n6684.0 5916.0 5926.0 5798.0 5692.0 5858.0\n6680.0 5908.0 5932.0 5790.0 5688.0 5862.0\n6688.0 5914.0 5926.0 5790.0 5686.0 5858.0\n6688.0 5924.0 5924.0 5802.0 5688.0 5860.0\n6676.0 5918.0 5934.0 5796.0 5688.0 5854.0\n6684.0 5912.0 5924.0 5794.0 5692.0 5858.0\n6678.0 5920.0 5930.0 5802.0 5682.0 5864.0\n6684.0 5918.0 5918.0 5800.0 5688.0 5864.0\n6688.0 5916.0 5924.0 5802.0 5686.0 5862.0\n6680.0 5918.0 5930.0 5792.0 5690.0 5864.0\n6682.0 5916.0 5922.0 5796.0 5688.0 5864.0\n6686.0 5914.0 5926.0 5792.0 5696.0 5852.0\n6678.0 5912.0 5920.0 5800.0 5688.0 5870.0\n6674.0 5918.0 5928.0 5796.0 5702.0 5862.0\n6688.0 5912.0 5928.0 5790.0 5686.0 5862.0\n6684.0 5912.0 5922.0 5794.0 5692.0 5870.0\n6686.0 5908.0 5928.0 5794.0 5700.0 5860.0\n6690.0 5920.0 5928.0 5792.0 5692.0 5858.0\n6682.0 5914.0 5922.0 5796.0 5694.0 5868.0\n6684.0 5920.0 5926.0 5796.0 5692.0 5870.0\n6688.0 5918.0 5924.0 5786.0 5690.0 5862.0\n6684.0 5920.0 5926.0 5804.0 5696.0 5864.0\n6682.0 5912.0 5924.0 5792.0 5686.0 5856.0\n6688.0 5918.0 5912.0 5786.0 5680.0 5866.0\n6688.0 5904.0 5916.0 5798.0 5690.0 5858.0\n6684.0 5914.0 5924.0 5796.0 5684.0 5858.0\n6684.0 5918.0 5928.0 5790.0 5690.0 5874.0\n6690.0 5912.0 5934.0 5794.0 5680.0 5864.0\n6684.0 5918.0 5916.0 5790.0 5686.0 5866.0\n6694.0 5918.0 5926.0 5800.0 5700.0 5864.0\n6686.0 5914.0 5922.0 5800.0 5684.0 5854.0\n6688.0 5918.0 5924.0 5782.0 5688.0 5868.0\n6688.0 5916.0 5924.0 5794.0 5694.0 5860.0\n6690.0 5914.0 5918.0 5796.0 5696.0 5864.0\n6684.0 5904.0 5928.0 5798.0 5682.0 5864.0\n6682.0 5908.0 5924.0 5786.0 5678.0 5866.0\n6688.0 5906.0 5924.0 5794.0 5686.0 5858.0\n6682.0 5922.0 5922.0 5790.0 5688.0 5858.0\n6680.0 5906.0 5926.0 5796.0 5686.0 5866.0\n6688.0 5910.0 5930.0 5794.0 5682.0 5860.0\n6684.0 5912.0 5918.0 5796.0 5692.0 5860.0\n6688.0 5912.0 5918.0 5790.0 5698.0 5868.0\n6684.0 5918.0 5922.0 5798.0 5690.0 5858.0\n6688.0 5920.0 5918.0 5786.0 5686.0 5862.0\n6682.0 5918.0 5922.0 5798.0 5696.0 5866.0\n6692.0 5916.0 5932.0 5790.0 5696.0 5868.0\n6684.0 5912.0 5920.0 5788.0 5700.0 5870.0\n6682.0 5920.0 5930.0 5796.0 5690.0 5862.0\n6694.0 5908.0 5924.0 5786.0 5684.0 5862.0\n6680.0 5910.0 5922.0 5792.0 5694.0 5858.0\n6678.0 5924.0 5918.0 5802.0 5698.0 5854.0\n6686.0 5918.0 5924.0 5808.0 5688.0 5858.0\n6688.0 5912.0 5928.0 5796.0 5700.0 5854.0\n6686.0 5918.0 5916.0 5792.0 5696.0 5870.0\n6690.0 5914.0 5926.0 5798.0 5686.0 5866.0\n6690.0 5920.0 5932.0 5790.0 5690.0 5860.0\n6686.0 5918.0 5920.0 5792.0 5694.0 5854.0\n6690.0 5904.0 5922.0 5782.0 5692.0 5866.0\n6694.0 5920.0 5918.0 5792.0 5690.0 5870.0\n6692.0 5910.0 5922.0 5786.0 5694.0 5860.0\n6686.0 5920.0 5922.0 5790.0 5696.0 5860.0\n6692.0 5914.0 5926.0 5778.0 5700.0 5862.0\n6684.0 5908.0 5924.0 5792.0 5698.0 5864.0\n6684.0 5924.0 5928.0 5798.0 5696.0 5862.0\n6684.0 5912.0 5924.0 5792.0 5692.0 5860.0\n6694.0 5918.0 5926.0 5788.0 5688.0 5862.0\n6688.0 5916.0 5928.0 5806.0 5696.0 5858.0\n6700.0 5918.0 5920.0 5794.0 5680.0 5856.0\n6686.0 5912.0 5926.0 5788.0 5690.0 5858.0\n6692.0 5918.0 5914.0 5808.0 5694.0 5858.0\n6676.0 5916.0 5928.0 5798.0 5694.0 5862.0\n6686.0 5922.0 5940.0 5800.0 5690.0 5864.0\n6690.0 5910.0 5924.0 5796.0 5684.0 5866.0\n6688.0 5912.0 5924.0 5798.0 5692.0 5862.0\n6694.0 5918.0 5918.0 5790.0 5696.0 5872.0\n6698.0 5916.0 5918.0 5788.0 5698.0 5862.0\n6690.0 5906.0 5916.0 5798.0 5692.0 5866.0\n6692.0 5920.0 5910.0 5798.0 5696.0 5854.0\n6688.0 5920.0 5924.0 5794.0 5692.0 5864.0\n6690.0 5920.0 5916.0 5788.0 5698.0 5862.0\n6678.0 5920.0 5918.0 5802.0 5692.0 5872.0\n6682.0 5908.0 5928.0 5792.0 5690.0 5866.0\n6692.0 5920.0 5926.0 5800.0 5690.0 5862.0\n6692.0 5918.0 5922.0 5786.0 5686.0 5868.0\n6688.0 5916.0 5920.0 5794.0 5696.0 5866.0\n6694.0 5908.0 5930.0 5792.0 5694.0 5870.0\n6694.0 5914.0 5922.0 5790.0 5694.0 5860.0\n6688.0 5916.0 5926.0 5794.0 5698.0 5864.0\n6682.0 5914.0 5926.0 5800.0 5692.0 5856.0\n6696.0 5918.0 5926.0 5802.0 5696.0 5858.0\n6686.0 5912.0 5924.0 5802.0 5686.0 5862.0\n6692.0 5914.0 5918.0 5792.0 5686.0 5862.0\n6692.0 5918.0 5920.0 5806.0 5698.0 5870.0\n6688.0 5918.0 5924.0 5794.0 5696.0 5866.0\n6688.0 5920.0 5924.0 5798.0 5694.0 5862.0\n6698.0 5918.0 5928.0 5796.0 5692.0 5868.0\n6674.0 5918.0 5914.0 5798.0 5696.0 5852.0\n6684.0 5912.0 5920.0 5790.0 5698.0 5858.0\n6710.0 5924.0 5916.0 5798.0 5700.0 5856.0\n6690.0 5904.0 5926.0 5792.0 5696.0 5856.0\n6692.0 5922.0 5924.0 5796.0 5692.0 5864.0\n6694.0 5914.0 5924.0 5792.0 5692.0 5866.0\n6682.0 5916.0 5918.0 5798.0 5686.0 5848.0\n6674.0 5914.0 5922.0 5792.0 5694.0 5862.0\n6688.0 5920.0 5922.0 5788.0 5692.0 5860.0\n6686.0 5912.0 5932.0 5794.0 5696.0 5856.0\n6692.0 5910.0 5926.0 5796.0 5698.0 5856.0\n6674.0 5914.0 5934.0 5788.0 5686.0 5858.0\n6684.0 5914.0 5930.0 5800.0 5688.0 5858.0\n6688.0 5920.0 5918.0 5786.0 5690.0 5862.0\n6672.0 5900.0 5928.0 5796.0 5686.0 5846.0\n6694.0 5916.0 5914.0 5792.0 5682.0 5856.0\n