6742.0 5898.0 5942.0 5800.0 5692.0 5862.0\n6746.0 5910.0 5952.0 5804.0 5706.0 5858.0\n6746.0 5902.0 5940.0 5798.0 5706.0 5856.0\n6740.0 5900.0 5948.0 5796.0 5706.0 5856.0\n6746.0 5888.0 5932.0 5798.0 5700.0 5862.0\n6736.0 5906.0 5942.0 5800.0 5704.0 5866.0\n6744.0 5900.0 5942.0 5800.0 5696.0 5862.0\n6744.0 5900.0 5946.0 5798.0 5694.0 5860.0\n6740.0 5896.0 5946.0 5798.0 5700.0 5868.0\n6744.0 5902.0 5938.0 5814.0 5706.0 5864.0\n6738.0 5898.0 5946.0 5804.0 5692.0 5858.0\n6740.0 5886.0 5948.0 5826.0 5704.0 5860.0\n6750.0 5888.0 5938.0 5806.0 5694.0 5870.0\n6744.0 5900.0 5948.0 5804.0 5694.0 5862.0\n6752.0 5908.0 5948.0 5802.0 5696.0 5858.0\n6750.0 5896.0 5938.0 5804.0 5710.0 5862.0\n6750.0 5906.0 5950.0 5806.0 5704.0 5858.0\n6756.0 5890.0 5948.0 5804.0 5706.0 5852.0\n6762.0 5898.0 5944.0 5814.0 5702.0 5862.0\n6778.0 5908.0 5948.0 5804.0 5700.0 5856.0\n6778.0 5894.0 5948.0 5816.0 5706.0 5862.0\n6794.0 5902.0 5956.0 5816.0 5710.0 5876.0\n6788.0 5902.0 5954.0 5816.0 5710.0 5862.0\n6796.0 5904.0 5950.0 5802.0 5702.0 5862.0\n6808.0 5904.0 5960.0 5808.0 5720.0 5860.0\n6842.0 5910.0 5954.0 5816.0 5716.0 5870.0\n6862.0 5906.0 5954.0 5816.0 5714.0 5866.0\n6864.0 5900.0 5952.0 5812.0 5716.0 5854.0\n6908.0 5920.0 5968.0 5818.0 5722.0 5856.0\n6918.0 5918.0 5966.0 5816.0 5732.0 5870.0\n6936.0 5926.0 5972.0 5844.0 5742.0 5902.0\n6974.0 5908.0 5984.0 5860.0 5754.0 5870.0\n6988.0 5930.0 5992.0 5874.0 5766.0 5872.0\n7006.0 5922.0 5996.0 5896.0 5778.0 5882.0\n7030.0 5924.0 6010.0 5952.0 5802.0 5886.0\n7060.0 5930.0 6012.0 5974.0 5810.0 5878.0\n7074.0 5924.0 6024.0 6010.0 5828.0 5884.0\n7114.0 5924.0 6054.0 6078.0 5842.0 5872.0\n7150.0 5936.0 6054.0 6090.0 5848.0 5868.0\n7244.0 5954.0 6080.0 6156.0 5876.0 5866.0\n7300.0 5952.0 6078.0 6166.0 5910.0 5870.0\n7318.0 5968.0 6086.0 6230.0 5950.0 5866.0\n7316.0 5964.0 6088.0 6268.0 5970.0 5878.0\n7306.0 5968.0 6092.0 6376.0 6044.0 5876.0\n7330.0 5982.0 6090.0 6438.0 6082.0 5872.0\n7352.0 5974.0 6108.0 6478.0 6118.0 5880.0\n7404.0 5980.0 6124.0 6538.0 6142.0 5872.0\n7436.0 5974.0 6128.0 6558.0 6174.0 5876.0\n7438.0 5972.0 6132.0 6576.0 6212.0 5870.0\n7452.0 6004.0 6130.0 6622.0 6248.0 5874.0\n7440.0 5996.0 6124.0 6626.0 6268.0 5884.0\n7450.0 6004.0 6126.0 6654.0 6274.0 5880.0\n7450.0 6002.0 6126.0 6648.0 6284.0 5872.0\n7446.0 5994.0 6124.0 6660.0 6264.0 5882.0\n7432.0 5994.0 6118.0 6650.0 6258.0 5866.0\n7434.0 5988.0 6128.0 6640.0 6240.0 5868.0\n7434.0 5992.0 6132.0 6642.0 6230.0 5878.0\n7438.0 5984.0 6116.0 6642.0 6230.0 5870.0\n7438.0 5986.0 6126.0 6582.0 6230.0 5874.0\n7422.0 5998.0 6122.0 6556.0 6222.0 5880.0\n7404.0 5966.0 6112.0 6470.0 6186.0 5872.0\n7432.0 5966.0 6102.0 6436.0 6186.0 5872.0\n7374.0 5954.0 6112.0 6398.0 6140.0 5870.0\n7362.0 5964.0 6110.0 6360.0 6118.0 5860.0\n7326.0 5944.0 6100.0 6304.0 6086.0 5856.0\n7310.0 5956.0 6092.0 6266.0 6062.0 5862.0\n7262.0 5956.0 6070.0 6186.0 6008.0 5870.0\n7166.0 5944.0 6060.0 6108.0 5962.0 5860.0\n7140.0 5950.0 6048.0 6040.0 5918.0 5860.0\n7092.0 5934.0 6034.0 6006.0 5882.0 5864.0\n6996.0 5920.0 6014.0 5920.0 5818.0 5866.0\n6960.0 5916.0 6014.0 5906.0 5802.0 5858.0\n6928.0 5924.0 5994.0 5864.0 5760.0 5862.0\n6900.0 5912.0 5982.0 5854.0 5746.0 5854.0\n6838.0 5914.0 5966.0 5838.0 5742.0 5860.0\n6822.0 5898.0 5968.0 5834.0 5734.0 5866.0\n6794.0 5908.0 5966.0 5834.0 5722.0 5874.0\n6768.0 5906.0 5964.0 5826.0 5722.0 5862.0\n6760.0 5908.0 5962.0 5818.0 5720.0 5858.0\n6766.0 5902.0 5960.0 5830.0 5722.0 5856.0\n6794.0 5908.0 5954.0 5824.0 5718.0 5856.0\n6762.0 5914.0 5958.0 5818.0 5712.0 5862.0\n6774.0 5914.0 5952.0 5816.0 5716.0 5862.0\n6770.0 5908.0 5948.0 5810.0 5712.0 5856.0\n6762.0 5920.0 5958.0 5822.0 5714.0 5866.0\n6762.0 5910.0 5964.0 5816.0 5704.0 5862.0\n6760.0 5912.0 5958.0 5822.0 5716.0 5864.0\n6750.0 5910.0 5966.0 5812.0 5710.0 5864.0\n6746.0 5912.0 5964.0 5822.0 5716.0 5870.0\n6748.0 5906.0 5954.0 5818.0 5708.0 5860.0\n6750.0 5914.0 5952.0 5820.0 5714.0 5862.0\n6748.0 5920.0 5960.0 5816.0 5720.0 5856.0\n6748.0 5912.0 5958.0 5814.0 5710.0 5866.0\n6750.0 5910.0 5956.0 5814.0 5706.0 5870.0\n6742.0 5904.0 5958.0 5814.0 5704.0 5868.0\n6746.0 5910.0 5956.0 5820.0 5704.0 5860.0\n6750.0 5908.0 5952.0 5816.0 5708.0 5858.0\n6748.0 5910.0 5956.0 5806.0 5710.0 5860.0\n6750.0 5906.0 5956.0 5822.0 5698.0 5842.0\n6746.0 5912.0 5960.0 5816.0 5700.0 5854.0\n6748.0 5912.0 5958.0 5816.0 5714.0 5874.0\n6744.0 5902.0 5952.0 5812.0 5708.0 5876.0\n6752.0 5910.0 5960.0 5808.0 5704.0 5868.0\n6752.0 5904.0 5962.0 5812.0 5704.0 5866.0\n6742.0 5906.0 5946.0 5818.0 5698.0 5858.0\n6750.0 5910.0 5956.0 5810.0 5712.0 5864.0\n6738.0 5904.0 5954.0 5810.0 5714.0 5866.0\n6742.0 5914.0 5954.0 5810.0 5700.0 5864.0\n6740.0 5912.0 5948.0 5810.0 5700.0 5862.0\n6744.0 5908.0 5948.0 5818.0 5710.0 5870.0\n6744.0 5906.0 5952.0 5810.0 5696.0 5866.0\n6740.0 5918.0 5952.0 5818.0 5696.0 5866.0\n6736.0 5916.0 5946.0 5808.0 5704.0 5856.0\n6740.0 5914.0 5946.0 5818.0 5710.0 5864.0\n6744.0 5906.0 5950.0 5808.0 5710.0 5866.0\n6742.0 5906.0 5948.0 5808.0 5704.0 5860.0\n6742.0 5904.0 5944.0 5808.0 5694.0 5868.0\n6738.0 5912.0 5954.0 5810.0 5710.0 5864.0\n6740.0 5900.0 5944.0 5808.0 5710.0 5870.0\n6752.0 5892.0 5956.0 5804.0 5708.0 5864.0\n6738.0 5910.0 5948.0 5814.0 5708.0 5870.0\n6746.0 5920.0 5962.0 5816.0 5702.0 5856.0\n6740.0 5918.0 5948.0 5814.0 5704.0 5864.0\n6734.0 5920.0 5956.0 5806.0 5696.0 5866.0\n6740.0 5914.0 5958.0 5808.0 5704.0 5868.0\n6790.0 5914.0 5958.0 5812.0 5696.0 5862.0\n6746.0 5920.0 5952.0 5808.0 5708.0 5864.0\n6742.0 5912.0 5946.0 5806.0 5700.0 5866.0\n6732.0 5904.0 5948.0 5808.0 5706.0 5862.0\n6744.0 5906.0 5954.0 5814.0 5708.0 5866.0\n6738.0 5906.0 5958.0 5810.0 5708.0 5860.0\n6746.0 5904.0 5942.0 5804.0 5706.0 5860.0\n6740.0 5906.0 5948.0 5814.0 5710.0 5866.0\n6744.0 5902.0 5946.0 5816.0 5700.0 5858.0\n6748.0 5904.0 5946.0 5816.0 5700.0 5860.0\n6746.0 5902.0 5954.0 5806.0 5708.0 5866.0\n6740.0 5912.0 5950.0 5810.0 5704.0 5862.0\n6732.0 5904.0 5942.0 5812.0 5698.0 5858.0\n6740.0 5906.0 5952.0 5800.0 5606.0 5858.0\n6740.0 5912.0 5950.0 5808.0 5698.0 5866.0\n6744.0 5914.0 5950.0 5808.0 5700.0 5862.0\n6742.0 5908.0 5960.0 5810.0 5696.0 5860.0\n6732.0 5916.0 5966.0 5808.0 5700.0 5858.0\n6746.0 5916.0 5954.0 5808.0 5698.0 5862.0\n6732.0 5914.0 5944.0 5806.0 5706.0 5860.0\n6738.0 5912.0 5952.0 5804.0 5710.0 5868.0\n6746.0 5912.0 5950.0 5814.0 5696.0 5862.0\n6740.0 5912.0 5954.0 5806.0 5704.0 5848.0\n6752.0 5912.0 5948.0 5812.0 5702.0 5862.0\n6746.0 5908.0 5942.0 5810.0 5696.0 5860.0\n6742.0 5908.0 5952.0 5810.0 5702.0 5860.0\n6738.0 5916.0 5946.0 5810.0 5702.0 5862.0\n6746.0 5912.0 5948.0 5802.0 5702.0 5856.0\n6742.0 5916.0 5948.0 5814.0 5700.0 5864.0\n6754.0 5908.0 5956.0 5810.0 5694.0 5844.0\n6736.0 5910.0 5948.0 5812.0 5700.0 5868.0\n6744.0 5912.0 5956.0 5806.0 5706.0 5862.0\n6740.0 5906.0 5950.0 5796.0 5700.0 5872.0\n6744.0 5918.0 5958.0 5806.0 5708.0 5864.0\n6736.0 5914.0 5958.0 5820.0 5704.0 5860.0\n6738.0 5910.0 5940.0 5814.0 5696.0 5862.0\n6746.0 5908.0 5946.0 5816.0 5706.0 5850.0\n6754.0 5904.0 5952.0 5816.0 5706.0 5860.0\n6752.0 5908.0 5944.0 5804.0 5694.0 5862.0\n6750.0 5910.0 5946.0 5792.0 5700.0 5866.0\n6752.0 5920.0 5950.0 5818.0 5700.0 5870.0\n6748.0 5916.0 5948.0 5806.0 5704.0 5854.0\n6742.0 5910.0 5942.0 5808.0 5710.0 5858.0\n6740.0 5902.0 5950.0 5810.0 5704.0 5856.0\n6738.0 5914.0 5950.0 5800.0 5702.0 5866.0\n6740.0 5900.0 5946.0 5794.0 5704.0 5860.0\n6740.0 5906.0 5950.0 5798.0 5700.0 5860.0\n6748.0 5910.0 5954.0 5804.0 5712.0 5864.0\n6752.0 5912.0 5952.0 5814.0 5700.0 5864.0\n6748.0 5914.0 5954.0 5806.0 5704.0 5860.0\n6750.0 5906.0 5956.0 5806.0 5700.0 5858.0\n6744.0 5910.0 5940.0 5804.0 5700.0 5860.0\n6744.0 5918.0 5952.0 5798.0 5700.0 5866.0\n6742.0 5914.0 5952.0 5806.0 5694.0 5852.0\n6748.0 5910.0 5946.0 5804.0 5708.0 5858.0\n6742.0 5902.0 5952.0 5792.0 5694.0 5866.0\n6746.0 5910.0 5952.0 5802.0 5708.0 5870.0\n6746.0 5898.0 5936.0 5796.0 5708.0 5864.0\n6728.0 5906.0 5946.0 5808.0 5704.0 5858.0\n6732.0 5908.0 5944.0 5802.0 5698.0 5858.0\n6750.0 5912.0 5956.0 5800.0 5706.0 5864.0\n6740.0 5914.0 5958.0 5810.0 5700.0 5866.0\n6748.0 5920.0 5950.0 5804.0 5706.0 5870.0\n6750.0 5916.0 5952.0 5812.0 5698.0 5860.0\n6746.0 5922.0 5940.0 5794.0 5704.0 5862.0\n6750.0 5906.0 5956.0 5798.0 5708.0 5870.0\n6750.0 5920.0 5948.0 5806.0 5716.0 5866.0\n6740.0 5922.0 5946.0 5808.0 5702.0 5866.0\n6748.0 5912.0 5948.0 5810.0 5698.0 5862.0\n6742.0 5914.0 5946.0 5802.0 5710.0 5860.0\n6744.0 5914.0 5956.0 5808.0 5706.0 5862.0\n6742.0 5892.0 5948.0 5802.0 5702.0 5860.0\n6742.0 5906.0 5946.0 5796.0 5700.0 5858.0\n6744.0 5908.0 5950.0 5806.0 5700.0 5866.0\n6746.0 5916.0 5946.0 5794.0 5700.0 5866.0\n6742.0 5906.0 5942.0 5808.0 5702.0 5860.0\n6750.0 5910.0 5952.0 5802.0 5698.0 5852.0\n6742.0 5910.0 5948.0 5810.0 5702.0 5868.0\n6752.0 5912.0 5940.0 5808.0 5706.0 5860.0\n6748.0 5922.0 5950.0 5798.0 5706.0 5866.0\n6752.0 5914.0 5946.0 5810.0 5706.0 5868.0\n6730.0 5896.0 5958.0 5812.0 5698.0 5862.0\n6748.0 5914.0 5950.0 5806.0 5696.0 5858.0\n6746.0 5910.0 5950.0 5794.0 5700.0 5870.0\n6752.0 5912.0 5946.0 5804.0 5700.0 5862.0\n6750.0 5908.0 5952.0 5808.0 5696.0 5868.0\n6738.0 5908.0 5958.0 5810.0 5702.0 5852.0\n6748.0 5912.0 5944.0 5798.0 5706.0 5862.0\n6746.0 5910.0 5946.0 5804.0 5702.0 5860.0\n6738.0 5904.0 5946.0 5808.0 5706.0 5870.0\n6750.0 5914.0 5952.0 5810.0 5704.0 5862.0\n6740.0 5916.0 5944.0 5816.0 5708.0 5870.0\n6744.0 5916.0 5942.0 5800.0 5706.0 5862.0\n6752.0 5910.0 5942.0 5812.0 5696.0 5860.0\n6738.0 5900.0 5950.0 5806.0 5706.0 5860.0\n6744.0 5908.0 5942.0 5806.0 5704.0 5868.0\n6750.0 5916.0 5952.0 5800.0 5704.0 5862.0\n6742.0 5902.0 5948.0 5806.0 5694.0 5872.0\n6744.0 5910.0 5950.0 5806.0 5708.0 5860.0\n6738.0 5906.0 5948.0 5806.0 5702.0 5870.0\n6748.0 5910.0 5958.0 5814.0 5706.0 5868.0\n6738.0 5910.0 5950.0 5806.0 5706.0 5864.0\n6744.0 5916.0 5954.0 5814.0 5702.0 5864.0\n6738.0 5908.0 5950.0 5810.0 5700.0 5866.0\n6750.0 5914.0 5946.0 5804.0 5696.0 5860.0\n6744.0 5910.0 5950.0 5802.0 5702.0 5866.0\n6736.0 5898.0 5944.0 5802.0 5702.0 5868.0\n6746.0 5912.0 5950.0 5816.0 5702.0 5864.0\n6750.0 5912.0 5956.0 5808.0 5708.0 5866.0\n