6748.0 5920.0 5978.0 5816.0 5724.0 5876.0\n6744.0 5924.0 5980.0 5816.0 5722.0 5876.0\n6744.0 5922.0 5978.0 5812.0 5716.0 5876.0\n6746.0 5932.0 5982.0 5830.0 5724.0 5872.0\n6736.0 5918.0 5978.0 5818.0 5722.0 5876.0\n6748.0 5926.0 5972.0 5820.0 5724.0 5876.0\n6742.0 5930.0 5990.0 5822.0 5718.0 5880.0\n6748.0 5922.0 5982.0 5806.0 5720.0 5874.0\n6752.0 5928.0 5974.0 5806.0 5724.0 5884.0\n6748.0 5916.0 5976.0 5820.0 5722.0 5872.0\n6738.0 5922.0 5976.0 5822.0 5722.0 5872.0\n6750.0 5936.0 5974.0 5848.0 5714.0 5876.0\n6752.0 5932.0 5984.0 5816.0 5728.0 5874.0\n6746.0 5924.0 5980.0 5814.0 5720.0 5876.0\n6752.0 5922.0 5980.0 5812.0 5714.0 5876.0\n6764.0 5918.0 5990.0 5820.0 5716.0 5874.0\n6764.0 5932.0 5974.0 5818.0 5724.0 5870.0\n6778.0 5922.0 5982.0 5826.0 5718.0 5874.0\n6788.0 5920.0 5992.0 5824.0 5722.0 5868.0\n6810.0 5934.0 5994.0 5836.0 5732.0 5876.0\n6810.0 5916.0 5988.0 5820.0 5722.0 5874.0\n6808.0 5926.0 5994.0 5820.0 5722.0 5862.0\n6804.0 5930.0 5988.0 5822.0 5736.0 5878.0\n6822.0 5922.0 5988.0 5814.0 5728.0 5874.0\n6844.0 5922.0 5998.0 5818.0 5724.0 5876.0\n6850.0 5922.0 5980.0 5824.0 5726.0 5876.0\n6856.0 5932.0 6000.0 5838.0 5744.0 5870.0\n6886.0 5934.0 5988.0 5846.0 5734.0 5874.0\n6908.0 5942.0 6002.0 5852.0 5744.0 5886.0\n6922.0 5938.0 6000.0 5850.0 5744.0 5868.0\n6944.0 5936.0 6000.0 5876.0 5752.0 5870.0\n6992.0 5956.0 6026.0 5914.0 5778.0 5874.0\n7006.0 5956.0 6038.0 5940.0 5792.0 5886.0\n7016.0 5962.0 6042.0 5986.0 5802.0 5892.0\n7040.0 5958.0 6044.0 6018.0 5820.0 5876.0\n7054.0 5958.0 6060.0 6060.0 5840.0 5896.0\n7062.0 5958.0 6082.0 6090.0 5838.0 5888.0\n7106.0 5966.0 6078.0 6142.0 5850.0 5890.0\n7116.0 5984.0 6092.0 6164.0 5866.0 5884.0\n7134.0 5974.0 6094.0 6172.0 5888.0 5888.0\n7164.0 5986.0 6116.0 6208.0 5902.0 5884.0\n7200.0 5988.0 6126.0 6244.0 5924.0 5888.0\n7260.0 5996.0 6158.0 6326.0 6030.0 5884.0\n7268.0 5982.0 6168.0 6366.0 6076.0 5890.0\n7266.0 6000.0 6162.0 6442.0 6152.0 5882.0\n7294.0 6000.0 6174.0 6480.0 6188.0 5890.0\n7328.0 6004.0 6174.0 6526.0 6260.0 5902.0\n7354.0 6016.0 6182.0 6564.0 6282.0 5874.0\n7398.0 6032.0 6188.0 6606.0 6310.0 5876.0\n7404.0 6026.0 6186.0 6620.0 6342.0 5886.0\n7410.0 6032.0 6196.0 6634.0 6370.0 5874.0\n7392.0 6044.0 6194.0 6670.0 6388.0 5894.0\n7414.0 6066.0 6186.0 6694.0 6402.0 5880.0\n7412.0 6066.0 6190.0 6702.0 6414.0 5890.0\n7408.0 6066.0 6194.0 6714.0 6410.0 5888.0\n7404.0 6066.0 6190.0 6732.0 6416.0 5886.0\n7440.0 6070.0 6182.0 6740.0 6420.0 5884.0\n7444.0 6082.0 6174.0 6750.0 6430.0 5876.0\n7438.0 6078.0 6196.0 6778.0 6432.0 5882.0\n7430.0 6082.0 6174.0 6766.0 6426.0 5892.0\n7434.0 6092.0 6174.0 6774.0 6424.0 5894.0\n7432.0 6104.0 6172.0 6780.0 6420.0 5878.0\n7434.0 6088.0 6174.0 6782.0 6432.0 5886.0\n7448.0 6080.0 6174.0 6794.0 6432.0 5888.0\n7444.0 6092.0 6174.0 6794.0 6438.0 5892.0\n7432.0 6086.0 6172.0 6798.0 6432.0 5886.0\n7432.0 6096.0 6174.0 6796.0 6430.0 5896.0\n7438.0 6086.0 6170.0 6794.0 6420.0 5886.0\n7430.0 6094.0 6184.0 6798.0 6414.0 5878.0\n7434.0 6096.0 6166.0 6786.0 6394.0 5886.0\n7416.0 6090.0 6174.0 6788.0 6390.0 5884.0\n7416.0 6082.0 6160.0 6786.0 6382.0 5884.0\n7412.0 6074.0 6174.0 6782.0 6396.0 5892.0\n7442.0 6074.0 6174.0 6772.0 6392.0 5876.0\n7430.0 6066.0 6182.0 6772.0 6394.0 5872.0\n7426.0 6046.0 6182.0 6730.0 6388.0 5882.0\n7426.0 6048.0 6174.0 6706.0 6362.0 5886.0\n7422.0 6046.0 6174.0 6652.0 6332.0 5868.0\n7428.0 6036.0 6158.0 6612.0 6316.0 5882.0\n7426.0 6038.0 6158.0 6572.0 6310.0 5874.0\n7416.0 6034.0 6168.0 6518.0 6292.0 5868.0\n7416.0 6028.0 6158.0 6470.0 6282.0 5874.0\n7402.0 6008.0 6142.0 6438.0 6274.0 5876.0\n7368.0 6004.0 6156.0 6366.0 6240.0 5866.0\n7362.0 5990.0 6140.0 6360.0 6230.0 5868.0\n7316.0 5984.0 6134.0 6314.0 6190.0 5874.0\n7306.0 5978.0 6136.0 6304.0 6166.0 5866.0\n7262.0 5958.0 6118.0 6236.0 6098.0 5862.0\n7166.0 5964.0 6098.0 6202.0 6072.0 5862.0\n7164.0 5960.0 6094.0 6174.0 6022.0 5856.0\n7130.0 5954.0 6074.0 6106.0 5982.0 5870.0\n7074.0 5950.0 6060.0 6058.0 5936.0 5874.0\n7042.0 5952.0 6046.0 6010.0 5902.0 5866.0\n7002.0 5942.0 6042.0 5988.0 5858.0 5870.0\n6942.0 5942.0 6036.0 5958.0 5832.0 5868.0\n6858.0 5940.0 6014.0 5918.0 5792.0 5870.0\n6844.0 5930.0 6004.0 5914.0 5780.0 5868.0\n6816.0 5934.0 6000.0 5894.0 5766.0 5878.0\n6810.0 5928.0 6008.0 5886.0 5764.0 5878.0\n6794.0 5928.0 6002.0 5876.0 5764.0 5860.0\n6780.0 5936.0 5992.0 5868.0 5748.0 5874.0\n6774.0 5926.0 6000.0 5856.0 5756.0 5870.0\n6782.0 5932.0 5996.0 5838.0 5748.0 5872.0\n6780.0 5936.0 5996.0 5858.0 5740.0 5866.0\n6764.0 5932.0 5992.0 5848.0 5754.0 5878.0\n6764.0 5938.0 5990.0 5858.0 5742.0 5872.0\n6760.0 5934.0 5992.0 5856.0 5742.0 5868.0\n6766.0 5936.0 5988.0 5844.0 5736.0 5874.0\n6754.0 5930.0 5994.0 5850.0 5738.0 5880.0\n6756.0 5932.0 5996.0 5850.0 5742.0 5870.0\n6766.0 5928.0 5996.0 5844.0 5726.0 5862.0\n6756.0 5910.0 5984.0 5840.0 5746.0 5860.0\n6758.0 5924.0 5984.0 5846.0 5738.0 5876.0\n6760.0 5932.0 5994.0 5828.0 5744.0 5868.0\n6758.0 5938.0 5976.0 5836.0 5740.0 5874.0\n6760.0 5936.0 5986.0 5840.0 5734.0 5862.0\n6758.0 5924.0 5984.0 5834.0 5732.0 5872.0\n6760.0 5932.0 5980.0 5834.0 5742.0 5872.0\n6766.0 5922.0 5982.0 5834.0 5736.0 5864.0\n6756.0 5924.0 5986.0 5830.0 5740.0 5872.0\n6758.0 5934.0 5978.0 5832.0 5734.0 5878.0\n6764.0 5928.0 5976.0 5828.0 5734.0 5868.0\n6762.0 5928.0 5972.0 5826.0 5734.0 5872.0\n6756.0 5930.0 5982.0 5828.0 5734.0 5870.0\n6764.0 5930.0 5992.0 5832.0 5734.0 5874.0\n6762.0 5926.0 5976.0 5832.0 5732.0 5872.0\n6756.0 5928.0 5986.0 5826.0 5720.0 5868.0\n6758.0 5926.0 5980.0 5824.0 5732.0 5872.0\n6762.0 5930.0 5980.0 5826.0 5728.0 5874.0\n6752.0 5922.0 5978.0 5818.0 5724.0 5868.0\n6756.0 5934.0 5976.0 5830.0 5730.0 5878.0\n6754.0 5926.0 5978.0 5820.0 5730.0 5874.0\n6754.0 5926.0 5982.0 5828.0 5716.0 5870.0\n6762.0 5924.0 5978.0 5826.0 5732.0 5872.0\n6756.0 5934.0 5972.0 5820.0 5726.0 5870.0\n6756.0 5936.0 5972.0 5816.0 5728.0 5866.0\n6752.0 5920.0 5980.0 5820.0 5732.0 5878.0\n6748.0 5924.0 5980.0 5824.0 5726.0 5874.0\n6758.0 5930.0 5976.0 5820.0 5730.0 5870.0\n6760.0 5932.0 5976.0 5834.0 5724.0 5870.0\n6758.0 5926.0 5974.0 5828.0 5718.0 5882.0\n6762.0 5936.0 5978.0 5822.0 5718.0 5868.0\n6758.0 5922.0 5972.0 5824.0 5718.0 5880.0\n6754.0 5922.0 5982.0 5820.0 5726.0 5872.0\n6764.0 5922.0 5976.0 5822.0 5728.0 5868.0\n6754.0 5922.0 5980.0 5818.0 5724.0 5870.0\n6752.0 5932.0 5974.0 5822.0 5732.0 5874.0\n6752.0 5928.0 5974.0 5828.0 5714.0 5872.0\n6754.0 5920.0 5980.0 5820.0 5726.0 5880.0\n6754.0 5928.0 5976.0 5820.0 5722.0 5870.0\n6758.0 5926.0 5980.0 5818.0 5720.0 5860.0\n6764.0 5932.0 5978.0 5826.0 5722.0 5868.0\n6748.0 5922.0 5972.0 5820.0 5736.0 5870.0\n6756.0 5928.0 5974.0 5820.0 5716.0 5872.0\n6756.0 5924.0 5978.0 5820.0 5716.0 5868.0\n6756.0 5920.0 5980.0 5818.0 5720.0 5870.0\n6762.0 5926.0 5974.0 5818.0 5720.0 5870.0\n6766.0 5928.0 5974.0 5822.0 5718.0 5870.0\n6760.0 5924.0 5974.0 5814.0 5724.0 5876.0\n6754.0 5932.0 5976.0 5816.0 5718.0 5864.0\n6754.0 5936.0 5976.0 5824.0 5734.0 5880.0\n6760.0 5924.0 5970.0 5818.0 5718.0 5874.0\n6752.0 5920.0 5972.0 5828.0 5726.0 5870.0\n6758.0 5930.0 5978.0 5824.0 5724.0 5870.0\n6760.0 5920.0 5974.0 5820.0 5724.0 5876.0\n6764.0 5922.0 5978.0 5818.0 5726.0 5874.0\n6758.0 5924.0 5978.0 5826.0 5728.0 5870.0\n6752.0 5922.0 5970.0 5820.0 5716.0 5876.0\n6760.0 5934.0 5978.0 5826.0 5726.0 5876.0\n6756.0 5932.0 5984.0 5814.0 5726.0 5874.0\n6754.0 5934.0 5972.0 5826.0 5728.0 5878.0\n6754.0 5920.0 5980.0 5826.0 5720.0 5876.0\n6756.0 5920.0 5976.0 5814.0 5716.0 5874.0\n6758.0 5920.0 5978.0 5824.0 5718.0 5870.0\n6756.0 5934.0 5978.0 5810.0 5728.0 5872.0\n6756.0 5916.0 5976.0 5818.0 5724.0 5868.0\n6756.0 5924.0 5980.0 5818.0 5728.0 5870.0\n6750.0 5930.0 5982.0 5826.0 5722.0 5874.0\n6764.0 5926.0 5978.0 5830.0 5722.0 5868.0\n6760.0 5922.0 5972.0 5824.0 5724.0 5872.0\n6762.0 5916.0 5976.0 5820.0 5720.0 5868.0\n6752.0 5928.0 5976.0 5824.0 5716.0 5876.0\n6764.0 5926.0 5976.0 5822.0 5726.0 5868.0\n6768.0 5926.0 5980.0 5828.0 5734.0 5876.0\n6754.0 5920.0 5978.0 5828.0 5724.0 5864.0\n6764.0 5924.0 5976.0 5820.0 5722.0 5878.0\n6758.0 5920.0 5986.0 5828.0 5724.0 5870.0\n6756.0 5924.0 5982.0 5828.0 5726.0 5874.0\n6764.0 5926.0 5980.0 5826.0 5724.0 5878.0\n6760.0 5920.0 5978.0 5812.0 5728.0 5868.0\n6758.0 5930.0 5984.0 5832.0 5720.0 5864.0\n6758.0 5928.0 5974.0 5822.0 5724.0 5876.0\n6758.0 5932.0 5974.0 5820.0 5718.0 5874.0\n6750.0 5928.0 5982.0 5818.0 5726.0 5880.0\n6754.0 5932.0 5974.0 5824.0 5714.0 5872.0\n6754.0 5914.0 5986.0 5822.0 5726.0 5878.0\n6762.0 5924.0 5980.0 5824.0 5720.0 5872.0\n6766.0 5926.0 5976.0 5826.0 5724.0 5884.0\n6750.0 5930.0 5968.0 5818.0 5722.0 5870.0\n6762.0 5930.0 5972.0 5824.0 5724.0 5880.0\n6758.0 5918.0 5976.0 5818.0 5718.0 5868.0\n6760.0 5926.0 5972.0 5816.0 5726.0 5880.0\n6760.0 5920.0 5980.0 5824.0 5724.0 5862.0\n6756.0 5930.0 5972.0 5822.0 5718.0 5876.0\n6764.0 5926.0 5980.0 5830.0 5724.0 5878.0\n6756.0 5932.0 5982.0 5818.0 5724.0 5868.0\n6760.0 5922.0 5980.0 5832.0 5728.0 5872.0\n6758.0 5928.0 5980.0 5820.0 5720.0 5878.0\n6754.0 5924.0 5978.0 5832.0 5720.0 5876.0\n6758.0 5926.0 5982.0 5828.0 5718.0 5876.0\n6764.0 5930.0 5976.0 5822.0 5726.0 5876.0\n6764.0 5930.0 5976.0 5816.0 5720.0 5872.0\n6754.0 5920.0 5966.0 5822.0 5722.0 5876.0\n6756.0 5920.0 5974.0 5830.0 5718.0 5872.0\n6758.0 5932.0 5992.0 5822.0 5714.0 5872.0\n6758.0 5918.0 5976.0 5810.0 5720.0 5878.0\n6756.0 5930.0 5974.0 5824.0 5722.0 5874.0\n6746.0 5930.0 5976.0 5818.0 5730.0 5870.0\n6756.0 5928.0 5980.0 5820.0 5714.0 5880.0\n6762.0 5930.0 5972.0 5802.0 5708.0 5874.0\n6760.0 5920.0 5972.0 5814.0 5730.0 5876.0\n6758.0 5926.0 5984.0 5816.0 5730.0 5870.0\n6758.0 5928.0 5976.0 5826.0 5718.0 5874.0\n6762.0 5916.0 5980.0 5824.0 5726.0 5870.0\n6760.0 5934.0 5970.0 5820.0 5724.0 5882.0\n6750.0 5924.0 5974.0 5820.0 5720.0 5874.0\n6760.0 5936.0 5972.0 5828.0 5718.0 5878.0\n6758.0 5932.0 5982.0 5820.0 5722.0 5870.0\n6752.0 5926.0 5978.0 5816.0 5716.0 5878.0\n6764.0 5928.0 5986.0 5816.0 5724.0 5870.0\n6750.0 5926.0 5970.0 5822.0 5734.0 5870.0\n6758.0 5922.0 5976.0 5822.0 5720.0 5878.0\n6762.0 5928.0 5980.0 5820.0 5722.0 5876.0\n6754.0 5924.0 5980.0 5814.0 5716.0 5876.0\n6756.0 5936.0 5976.0 5826.0 5724.0 5872.0\n6752.0 5918.0 5984.0 5814.0 5724.0 5882.0\n6754.0 5928.0 5974.0 5822.0 5712.0 5882.0\n6750.0 5930.0 5974.0 5824.0 5730.0 5878.0\n6756.0 5926.0 5970.0 5816.0 5720.0 5874.0\n6764.0 5926.0 5966.0 5824.0 5724.0 5868.0\n6762.0 5932.0 5976.0 5818.0 5722.0 5880.0\n6760.0 5928.0 5988.0 5822.0 5724.0 5878.0\n6760.0 5920.0 5968.0 5830.0 5728.0 5878.0\n6758.0 5918.0 5978.0 5820.0 5720.0 5868.0\n6762.0 5934.0 5982.0 5824.0 5722.0 5868.0\n6764.0 5926.0 5968.0 5814.0 5720.0 5880.0\n6760.0 5920.0 5980.0 5826.0 5712.0 5872.0\n6760.0 5928.0 5974.0 5826.0 5724.0 5872.0\n6762.0 5930.0 5982.0 5824.0 5730.0 5874.0\n6752.0 5922.0 5978.0 5830.0 5718.0 5868.0\n6764.0 5924.0 5976.0 5834.0 5724.0 5874.0\n6760.0 5924.0 5972.0 5826.0 5714.0 5874.0\n6766.0 5922.0 5982.0 5822.0 5728.0 5878.0\n6764.0 5936.0 5980.0 5828.0 5734.0 5876.0\n6756.0 5922.0 5984.0 5822.0 5722.0 5880.0\n