6834.0 5922.0 5950.0 5812.0 5706.0 5862.0\n6830.0 5914.0 5952.0 5810.0 5720.0 5870.0\n6832.0 5916.0 5954.0 5808.0 5710.0 5866.0\n6834.0 5912.0 5962.0 5798.0 5708.0 5868.0\n6828.0 5916.0 5958.0 5810.0 5704.0 5868.0\n6830.0 5914.0 5950.0 5814.0 5714.0 5862.0\n6838.0 5916.0 5956.0 5812.0 5710.0 5872.0\n6820.0 5918.0 5944.0 5808.0 5708.0 5856.0\n6822.0 5916.0 5954.0 5816.0 5708.0 5868.0\n6830.0 5914.0 5950.0 5816.0 5716.0 5870.0\n6836.0 5920.0 5950.0 5810.0 5710.0 5872.0\n6826.0 5924.0 5956.0 5814.0 5708.0 5864.0\n6824.0 5922.0 5962.0 5806.0 5716.0 5864.0\n6820.0 5930.0 5952.0 5802.0 5704.0 5868.0\n6836.0 5926.0 5950.0 5808.0 5702.0 5864.0\n6828.0 5902.0 5958.0 5812.0 5708.0 5868.0\n6820.0 5900.0 5954.0 5814.0 5706.0 5860.0\n6836.0 5920.0 5956.0 5808.0 5706.0 5864.0\n6828.0 5914.0 5952.0 5806.0 5704.0 5858.0\n6836.0 5914.0 5956.0 5810.0 5710.0 5864.0\n6830.0 5916.0 5942.0 5800.0 5704.0 5864.0\n6826.0 5916.0 5954.0 5802.0 5702.0 5860.0\n6828.0 5912.0 5962.0 5812.0 5706.0 5870.0\n6828.0 5916.0 5952.0 5806.0 5704.0 5864.0\n6834.0 5918.0 5958.0 5802.0 5704.0 5860.0\n6826.0 5906.0 5946.0 5810.0 5704.0 5866.0\n6844.0 5920.0 5956.0 5808.0 5714.0 5862.0\n6830.0 5922.0 5946.0 5806.0 5710.0 5872.0\n6838.0 5910.0 5954.0 5820.0 5708.0 5866.0\n6838.0 5920.0 5958.0 5814.0 5722.0 5866.0\n6844.0 5918.0 5962.0 5812.0 5712.0 5866.0\n6848.0 5926.0 5952.0 5810.0 5722.0 5864.0\n6844.0 5922.0 5950.0 5814.0 5716.0 5866.0\n6846.0 5922.0 5952.0 5824.0 5726.0 5868.0\n6850.0 5920.0 5950.0 5810.0 5712.0 5870.0\n6854.0 5916.0 5956.0 5818.0 5712.0 5866.0\n6846.0 5920.0 5962.0 5824.0 5716.0 5860.0\n6872.0 5914.0 5956.0 5822.0 5724.0 5870.0\n6872.0 5916.0 5966.0 5828.0 5724.0 5868.0\n6880.0 5928.0 5976.0 5824.0 5718.0 5872.0\n6904.0 5926.0 5966.0 5824.0 5722.0 5862.0\n6944.0 5922.0 5982.0 5836.0 5740.0 5862.0\n6966.0 5928.0 5970.0 5826.0 5750.0 5862.0\n6994.0 5928.0 5994.0 5846.0 5762.0 5870.0\n6990.0 5940.0 5988.0 5858.0 5766.0 5878.0\n6996.0 5930.0 5978.0 5872.0 5774.0 5876.0\n7004.0 5932.0 5994.0 5888.0 5780.0 5862.0\n7026.0 5928.0 6002.0 5910.0 5784.0 5864.0\n7028.0 5918.0 6000.0 5908.0 5794.0 5874.0\n7040.0 5924.0 6012.0 5922.0 5786.0 5870.0\n7064.0 5932.0 6006.0 5938.0 5794.0 5872.0\n7080.0 5928.0 6012.0 5942.0 5808.0 5874.0\n7102.0 5934.0 6014.0 5968.0 5816.0 5872.0\n7122.0 5928.0 6038.0 6012.0 5838.0 5880.0\n7118.0 5922.0 6052.0 6036.0 5856.0 5874.0\n7142.0 5918.0 6054.0 6070.0 5868.0 5868.0\n7156.0 5924.0 6062.0 6098.0 5872.0 5874.0\n7166.0 5940.0 6068.0 6140.0 5890.0 5880.0\n7256.0 5926.0 6068.0 6154.0 5902.0 5876.0\n7316.0 5932.0 6084.0 6190.0 5918.0 5874.0\n7302.0 5948.0 6098.0 6242.0 5964.0 5876.0\n7306.0 5950.0 6092.0 6266.0 6004.0 5876.0\n7316.0 5960.0 6104.0 6320.0 6048.0 5872.0\n7330.0 5956.0 6098.0 6374.0 6098.0 5870.0\n7346.0 5960.0 6100.0 6432.0 6150.0 5878.0\n7428.0 5968.0 6116.0 6494.0 6232.0 5876.0\n7418.0 5988.0 6120.0 6526.0 6254.0 5872.0\n7416.0 5984.0 6116.0 6556.0 6274.0 5884.0\n7428.0 5984.0 6112.0 6586.0 6296.0 5870.0\n7404.0 5990.0 6112.0 6606.0 6302.0 5870.0\n7426.0 6000.0 6108.0 6632.0 6310.0 5872.0\n7418.0 5994.0 6106.0 6660.0 6326.0 5870.0\n7436.0 6010.0 6108.0 6680.0 6344.0 5876.0\n7430.0 6014.0 6108.0 6702.0 6368.0 5876.0\n7418.0 6006.0 6120.0 6720.0 6380.0 5882.0\n7430.0 6010.0 6102.0 6734.0 6404.0 5884.0\n7432.0 6004.0 6110.0 6746.0 6402.0 5880.0\n7428.0 6000.0 6110.0 6752.0 6402.0 5876.0\n7428.0 5998.0 6106.0 6740.0 6408.0 5880.0\n7442.0 6010.0 6118.0 6776.0 6398.0 5880.0\n7444.0 6010.0 6106.0 6774.0 6412.0 5872.0\n7448.0 6010.0 6114.0 6778.0 6406.0 5880.0\n7454.0 6006.0 6106.0 6784.0 6414.0 5880.0\n7450.0 6004.0 6110.0 6790.0 6406.0 5870.0\n7440.0 6012.0 6106.0 6788.0 6398.0 5876.0\n7440.0 6016.0 6110.0 6800.0 6392.0 5882.0\n7446.0 6008.0 6100.0 6788.0 6392.0 5884.0\n7458.0 6006.0 6102.0 6802.0 6396.0 5880.0\n7458.0 6002.0 6102.0 6796.0 6406.0 5874.0\n7456.0 6010.0 6114.0 6786.0 6406.0 5884.0\n7442.0 5996.0 6116.0 6798.0 6414.0 5878.0\n7450.0 6010.0 6114.0 6802.0 6410.0 5874.0\n7446.0 6002.0 6122.0 6794.0 6392.0 5882.0\n7440.0 5998.0 6118.0 6792.0 6374.0 5880.0\n7442.0 6002.0 6112.0 6762.0 6348.0 5872.0\n7436.0 5988.0 6110.0 6676.0 6336.0 5876.0\n7422.0 5996.0 6104.0 6636.0 6336.0 5870.0\n7426.0 5992.0 6102.0 6594.0 6316.0 5874.0\n7422.0 5976.0 6102.0 6588.0 6310.0 5860.0\n7430.0 5980.0 6100.0 6526.0 6282.0 5862.0\n7428.0 5964.0 6110.0 6510.0 6260.0 5866.0\n7414.0 5966.0 6094.0 6468.0 6236.0 5860.0\n7420.0 5952.0 6092.0 6424.0 6202.0 5856.0\n7384.0 5960.0 6094.0 6390.0 6182.0 5864.0\n7390.0 5960.0 6092.0 6342.0 6156.0 5870.0\n7470.0 5954.0 6086.0 6290.0 6114.0 5862.0\n7376.0 5958.0 6066.0 6242.0 6076.0 5858.0\n7304.0 5942.0 6056.0 6166.0 6026.0 5854.0\n7274.0 5958.0 6062.0 6142.0 6010.0 5860.0\n7212.0 5924.0 6042.0 6092.0 5962.0 5864.0\n7156.0 5924.0 6044.0 6070.0 5948.0 5864.0\n7120.0 5936.0 6032.0 6032.0 5906.0 5866.0\n7082.0 5928.0 6038.0 6020.0 5886.0 5870.0\n7042.0 5924.0 6020.0 5980.0 5842.0 5870.0\n7012.0 5938.0 6016.0 5950.0 5824.0 5870.0\n6992.0 5926.0 5994.0 5916.0 5804.0 5870.0\n6958.0 5922.0 5994.0 5900.0 5786.0 5868.0\n6926.0 5932.0 5988.0 5890.0 5780.0 5864.0\n6900.0 5928.0 5994.0 5876.0 5778.0 5860.0\n6876.0 5918.0 5998.0 5862.0 5754.0 5864.0\n6850.0 5902.0 5976.0 5864.0 5738.0 5870.0\n6846.0 5912.0 5960.0 5856.0 5740.0 5864.0\n6850.0 5918.0 5976.0 5850.0 5744.0 5866.0\n6838.0 5918.0 5972.0 5840.0 5742.0 5864.0\n6834.0 5918.0 5960.0 5840.0 5734.0 5854.0\n6830.0 5918.0 5966.0 5838.0 5728.0 5866.0\n6824.0 5916.0 5970.0 5826.0 5730.0 5856.0\n6816.0 5914.0 5966.0 5834.0 5722.0 5864.0\n6818.0 5912.0 5964.0 5828.0 5726.0 5856.0\n6820.0 5918.0 5964.0 5826.0 5720.0 5862.0\n6828.0 5920.0 5972.0 5824.0 5726.0 5864.0\n6824.0 5916.0 5962.0 5822.0 5726.0 5866.0\n6822.0 5918.0 5968.0 5818.0 5730.0 5854.0\n6824.0 5912.0 5966.0 5822.0 5724.0 5860.0\n6812.0 5920.0 5966.0 5824.0 5726.0 5862.0\n6816.0 5918.0 5972.0 5828.0 5732.0 5864.0\n6816.0 5910.0 5966.0 5820.0 5720.0 5868.0\n6810.0 5912.0 5952.0 5818.0 5722.0 5868.0\n6810.0 5914.0 5956.0 5810.0 5716.0 5854.0\n6808.0 5914.0 5964.0 5830.0 5712.0 5866.0\n6816.0 5918.0 5958.0 5820.0 5724.0 5872.0\n6814.0 5922.0 5962.0 5822.0 5714.0 5872.0\n6808.0 5914.0 5966.0 5820.0 5722.0 5860.0\n6816.0 5922.0 5964.0 5824.0 5720.0 5872.0\n6812.0 5922.0 5966.0 5816.0 5728.0 5866.0\n6810.0 5914.0 5958.0 5824.0 5720.0 5866.0\n6814.0 5928.0 5956.0 5822.0 5716.0 5864.0\n6820.0 5926.0 5958.0 5824.0 5720.0 5858.0\n6800.0 5916.0 5964.0 5816.0 5704.0 5858.0\n6812.0 5908.0 5964.0 5828.0 5710.0 5866.0\n6816.0 5918.0 5972.0 5818.0 5712.0 5866.0\n6818.0 5922.0 5962.0 5816.0 5716.0 5854.0\n6800.0 5916.0 5964.0 5824.0 5714.0 5866.0\n6814.0 5912.0 5964.0 5818.0 5720.0 5870.0\n6806.0 5910.0 5954.0 5810.0 5712.0 5866.0\n6814.0 5918.0 5962.0 5822.0 5716.0 5850.0\n6808.0 5922.0 5958.0 5812.0 5712.0 5862.0\n6806.0 5920.0 5964.0 5818.0 5714.0 5866.0\n6800.0 5918.0 5966.0 5816.0 5710.0 5858.0\n6810.0 5920.0 5960.0 5816.0 5714.0 5864.0\n6798.0 5920.0 5956.0 5822.0 5712.0 5876.0\n6802.0 5912.0 5950.0 5820.0 5708.0 5864.0\n6794.0 5920.0 5962.0 5816.0 5716.0 5858.0\n6802.0 5918.0 5962.0 5820.0 5718.0 5858.0\n6810.0 5920.0 5954.0 5822.0 5714.0 5872.0\n6806.0 5912.0 5964.0 5820.0 5712.0 5866.0\n6808.0 5914.0 5956.0 5814.0 5712.0 5862.0\n6812.0 5920.0 5956.0 5818.0 5704.0 5870.0\n6806.0 5920.0 5954.0 5822.0 5708.0 5858.0\n6804.0 5920.0 5964.0 5816.0 5716.0 5868.0\n6802.0 5914.0 5954.0 5814.0 5706.0 5856.0\n6806.0 5906.0 5964.0 5814.0 5708.0 5858.0\n6806.0 5918.0 5958.0 5814.0 5706.0 5860.0\n6808.0 5906.0 5960.0 5816.0 5702.0 5866.0\n6806.0 5922.0 5964.0 5814.0 5708.0 5860.0\n6804.0 5912.0 5954.0 5820.0 5708.0 5866.0\n6804.0 5916.0 5960.0 5822.0 5700.0 5866.0\n6804.0 5900.0 5966.0 5820.0 5704.0 5866.0\n6804.0 5920.0 5946.0 5814.0 5704.0 5870.0\n6804.0 5912.0 5960.0 5818.0 5712.0 5862.0\n6812.0 5896.0 5962.0 5812.0 5706.0 5866.0\n6804.0 5914.0 5958.0 5818.0 5706.0 5858.0\n6802.0 5906.0 5960.0 5814.0 5708.0 5868.0\n6802.0 5912.0 5944.0 5812.0 5712.0 5864.0\n6800.0 5924.0 5960.0 5814.0 5706.0 5866.0\n6790.0 5910.0 5962.0 5814.0 5704.0 5866.0\n6778.0 5914.0 5954.0 5816.0 5704.0 5864.0\n6776.0 5910.0 5952.0 5808.0 5700.0 5864.0\n6780.0 5918.0 5952.0 5820.0 5702.0 5862.0\n6780.0 5914.0 5958.0 5810.0 5704.0 5866.0\n6776.0 5908.0 5960.0 5804.0 5716.0 5862.0\n6772.0 5908.0 5968.0 5802.0 5710.0 5862.0\n6776.0 5920.0 5964.0 5808.0 5706.0 5864.0\n6780.0 5910.0 5958.0 5818.0 5710.0 5862.0\n6772.0 5912.0 5956.0 5818.0 5708.0 5858.0\n6780.0 5902.0 5950.0 5804.0 5706.0 5870.0\n6774.0 5906.0 5966.0 5810.0 5712.0 5864.0\n6794.0 5904.0 5954.0 5800.0 5712.0 5864.0\n6780.0 5922.0 5958.0 5810.0 5706.0 5874.0\n6768.0 5918.0 5954.0 5816.0 5706.0 5866.0\n6772.0 5916.0 5962.0 5820.0 5706.0 5864.0\n6784.0 5914.0 5956.0 5820.0 5706.0 5858.0\n6784.0 5910.0 5956.0 5802.0 5704.0 5860.0\n6774.0 5912.0 5958.0 5810.0 5704.0 5864.0\n6788.0 5930.0 5960.0 5812.0 5706.0 5870.0\n6778.0 5906.0 5964.0 5816.0 5710.0 5864.0\n6780.0 5914.0 5962.0 5818.0 5708.0 5864.0\n6774.0 5914.0 5964.0 5816.0 5710.0 5866.0\n6782.0 5920.0 5954.0 5818.0 5708.0 5868.0\n6774.0 5886.0 5960.0 5808.0 5710.0 5866.0\n6780.0 5912.0 5956.0 5808.0 5706.0 5862.0\n6780.0 5908.0 5966.0 5806.0 5710.0 5864.0\n6766.0 5914.0 5954.0 5810.0 5702.0 5864.0\n6784.0 5910.0 5956.0 5798.0 5716.0 5860.0\n6788.0 5916.0 5950.0 5810.0 5706.0 5870.0\n6772.0 5910.0 5958.0 5806.0 5706.0 5868.0\n6776.0 5910.0 5962.0 5804.0 5704.0 5868.0\n6782.0 5912.0 5954.0 5816.0 5710.0 5860.0\n6796.0 5914.0 5962.0 5820.0 5716.0 5868.0\n6778.0 5908.0 5960.0 5806.0 5710.0 5862.0\n6780.0 5906.0 5952.0 5810.0 5708.0 5868.0\n6792.0 5914.0 5958.0 5816.0 5706.0 5866.0\n6788.0 5914.0 5962.0 5802.0 5710.0 5866.0\n6784.0 5906.0 5956.0 5806.0 5710.0 5876.0\n6776.0 5906.0 5956.0 5810.0 5706.0 5868.0\n6786.0 5914.0 5962.0 5814.0 5710.0 5862.0\n6778.0 5920.0 5954.0 5810.0 5702.0 5860.0\n6782.0 5912.0 5956.0 5806.0 5698.0 5870.0\n6782.0 5912.0 5960.0 5814.0 5710.0 5872.0\n6768.0 5918.0 5962.0 5812.0 5700.0 5862.0\n6782.0 5918.0 5964.0 5808.0 5712.0 5858.0\n6780.0 5908.0 5960.0 5814.0 5704.0 5866.0\n6780.0 5918.0 5964.0 5814.0 5712.0 5872.0\n