6760.0 5918.0 5952.0 5800.0 5702.0 5858.0\n6754.0 5910.0 5952.0 5804.0 5696.0 5860.0\n6756.0 5906.0 5950.0 5804.0 5706.0 5856.0\n6748.0 5908.0 5948.0 5800.0 5710.0 5860.0\n6752.0 5920.0 5942.0 5798.0 5706.0 5856.0\n6756.0 5910.0 5942.0 5804.0 5700.0 5866.0\n6758.0 5904.0 5946.0 5810.0 5710.0 5870.0\n6762.0 5912.0 5950.0 5804.0 5702.0 5866.0\n6754.0 5920.0 5948.0 5800.0 5710.0 5870.0\n6758.0 5910.0 5950.0 5800.0 5706.0 5864.0\n6752.0 5906.0 5952.0 5804.0 5706.0 5862.0\n6762.0 5914.0 5954.0 5804.0 5700.0 5870.0\n6760.0 5910.0 5942.0 5812.0 5698.0 5858.0\n6772.0 5916.0 5948.0 5812.0 5708.0 5862.0\n6764.0 5914.0 5954.0 5802.0 5712.0 5860.0\n6786.0 5916.0 5954.0 5810.0 5706.0 5862.0\n6794.0 5920.0 5952.0 5816.0 5716.0 5868.0\n6798.0 5922.0 5948.0 5802.0 5712.0 5864.0\n6806.0 5920.0 5950.0 5808.0 5704.0 5864.0\n6812.0 5914.0 5938.0 5808.0 5708.0 5864.0\n6806.0 5914.0 5950.0 5814.0 5714.0 5862.0\n6810.0 5916.0 5958.0 5808.0 5716.0 5866.0\n6830.0 5912.0 5958.0 5802.0 5708.0 5866.0\n6836.0 5912.0 5954.0 5820.0 5714.0 5862.0\n6848.0 5922.0 5952.0 5816.0 5718.0 5862.0\n6856.0 5922.0 5960.0 5822.0 5716.0 5866.0\n6854.0 5922.0 5958.0 5828.0 5720.0 5864.0\n6864.0 5910.0 5962.0 5832.0 5724.0 5858.0\n6886.0 5922.0 5966.0 5834.0 5734.0 5864.0\n6900.0 5934.0 5968.0 5830.0 5734.0 5866.0\n6904.0 5920.0 5972.0 5830.0 5742.0 5868.0\n6910.0 5932.0 5976.0 5854.0 5744.0 5848.0\n6924.0 5928.0 5982.0 5856.0 5754.0 5862.0\n6944.0 5928.0 5992.0 5880.0 5766.0 5874.0\n6956.0 5938.0 5992.0 5874.0 5764.0 5864.0\n6980.0 5924.0 5994.0 5898.0 5780.0 5874.0\n6986.0 5934.0 5994.0 5896.0 5778.0 5876.0\n6990.0 5926.0 6004.0 5906.0 5784.0 5872.0\n7020.0 5920.0 6008.0 5924.0 5786.0 5882.0\n7026.0 5928.0 6006.0 5938.0 5798.0 5880.0\n7032.0 5920.0 6018.0 5950.0 5810.0 5878.0\n7062.0 5928.0 6018.0 5964.0 5816.0 5878.0\n7062.0 5934.0 6020.0 5998.0 5828.0 5876.0\n7070.0 5930.0 6040.0 6024.0 5838.0 5882.0\n7140.0 5936.0 6036.0 6050.0 5840.0 5882.0\n7180.0 5928.0 6058.0 6092.0 5864.0 5878.0\n7270.0 5944.0 6080.0 6154.0 5908.0 5870.0\n7302.0 5946.0 6078.0 6172.0 5918.0 5876.0\n7288.0 5958.0 6072.0 6258.0 5964.0 5872.0\n7300.0 5956.0 6084.0 6276.0 5990.0 5878.0\n7320.0 5954.0 6082.0 6304.0 6026.0 5876.0\n7326.0 5958.0 6082.0 6370.0 6038.0 5876.0\n7370.0 5960.0 6102.0 6406.0 6082.0 5882.0\n7368.0 5970.0 6100.0 6426.0 6108.0 5880.0\n7376.0 5962.0 6102.0 6456.0 6168.0 5876.0\n7376.0 5980.0 6106.0 6484.0 6166.0 5876.0\n7374.0 5988.0 6110.0 6468.0 6192.0 5882.0\n7386.0 5982.0 6104.0 6460.0 6198.0 5878.0\n7372.0 5980.0 6112.0 6474.0 6204.0 5876.0\n7364.0 5976.0 6110.0 6498.0 6204.0 5876.0\n7370.0 5978.0 6120.0 6498.0 6208.0 5872.0\n7356.0 5974.0 6108.0 6496.0 6202.0 5880.0\n7362.0 5974.0 6110.0 6488.0 6192.0 5878.0\n7362.0 5974.0 6118.0 6496.0 6174.0 5872.0\n7350.0 5966.0 6122.0 6490.0 6166.0 5866.0\n7348.0 5966.0 6120.0 6438.0 6150.0 5878.0\n7346.0 5972.0 6112.0 6404.0 6136.0 5876.0\n7332.0 5968.0 6108.0 6356.0 6114.0 5872.0\n7330.0 5958.0 6108.0 6310.0 6090.0 5868.0\n7332.0 5954.0 6102.0 6292.0 6078.0 5870.0\n7270.0 5942.0 6090.0 6182.0 6026.0 5864.0\n7264.0 5942.0 6068.0 6174.0 6022.0 5870.0\n7242.0 5948.0 6064.0 6108.0 5974.0 5872.0\n7232.0 5942.0 6064.0 6072.0 5956.0 5862.0\n7182.0 5934.0 6046.0 6012.0 5918.0 5864.0\n7128.0 5926.0 6044.0 5982.0 5890.0 5878.0\n7084.0 5932.0 6020.0 5938.0 5838.0 5864.0\n7026.0 5934.0 6006.0 5904.0 5824.0 5862.0\n6996.0 5922.0 6004.0 5890.0 5790.0 5854.0\n6954.0 5916.0 5988.0 5858.0 5760.0 5866.0\n6934.0 5926.0 5990.0 5846.0 5740.0 5870.0\n6896.0 5920.0 5976.0 5834.0 5750.0 5876.0\n6844.0 5910.0 5968.0 5830.0 5726.0 5870.0\n6834.0 5918.0 5960.0 5832.0 5732.0 5868.0\n6830.0 5912.0 5966.0 5820.0 5728.0 5862.0\n6816.0 5916.0 5966.0 5830.0 5720.0 5866.0\n6818.0 5906.0 5950.0 5822.0 5722.0 5864.0\n6820.0 5910.0 5960.0 5826.0 5722.0 5870.0\n6812.0 5912.0 5952.0 5818.0 5720.0 5864.0\n6800.0 5914.0 5958.0 5822.0 5706.0 5862.0\n6814.0 5906.0 5956.0 5814.0 5710.0 5858.0\n6814.0 5916.0 5954.0 5808.0 5708.0 5870.0\n6804.0 5918.0 5964.0 5806.0 5718.0 5852.0\n6792.0 5906.0 5956.0 5812.0 5714.0 5868.0\n6774.0 5898.0 5946.0 5818.0 5714.0 5866.0\n6792.0 5920.0 5954.0 5816.0 5714.0 5866.0\n6790.0 5914.0 5954.0 5822.0 5720.0 5868.0\n6770.0 5910.0 5952.0 5816.0 5706.0 5862.0\n6786.0 5914.0 5946.0 5808.0 5712.0 5872.0\n6782.0 5916.0 5952.0 5804.0 5718.0 5864.0\n6778.0 5916.0 5950.0 5818.0 5710.0 5864.0\n6774.0 5910.0 5950.0 5798.0 5706.0 5866.0\n6784.0 5920.0 5948.0 5808.0 5712.0 5862.0\n6790.0 5910.0 5952.0 5802.0 5704.0 5862.0\n6782.0 5908.0 5950.0 5812.0 5714.0 5862.0\n6764.0 5902.0 5948.0 5818.0 5706.0 5872.0\n6778.0 5910.0 5950.0 5810.0 5714.0 5854.0\n6766.0 5908.0 5954.0 5824.0 5702.0 5858.0\n6748.0 5922.0 5956.0 5802.0 5708.0 5864.0\n6778.0 5912.0 5956.0 5818.0 5694.0 5864.0\n6758.0 5898.0 5950.0 5814.0 5710.0 5868.0\n6760.0 5904.0 5950.0 5806.0 5702.0 5866.0\n6768.0 5908.0 5952.0 5812.0 5708.0 5864.0\n6762.0 5912.0 5946.0 5806.0 5700.0 5858.0\n6768.0 5914.0 5954.0 5796.0 5700.0 5864.0\n6772.0 5902.0 5946.0 5806.0 5708.0 5862.0\n6770.0 5910.0 5952.0 5814.0 5712.0 5862.0\n6772.0 5916.0 5956.0 5810.0 5706.0 5860.0\n6762.0 5920.0 5948.0 5818.0 5706.0 5858.0\n6764.0 5916.0 5948.0 5812.0 5702.0 5868.0\n6768.0 5914.0 5946.0 5810.0 5704.0 5866.0\n6768.0 5910.0 5950.0 5816.0 5702.0 5862.0\n6772.0 5908.0 5944.0 5812.0 5710.0 5866.0\n6772.0 5914.0 5954.0 5818.0 5702.0 5868.0\n6772.0 5926.0 5948.0 5812.0 5710.0 5862.0\n6768.0 5912.0 5948.0 5816.0 5710.0 5866.0\n6770.0 5910.0 5954.0 5800.0 5710.0 5868.0\n6764.0 5914.0 5954.0 5810.0 5694.0 5866.0\n6768.0 5912.0 5950.0 5822.0 5704.0 5858.0\n6770.0 5904.0 5942.0 5818.0 5702.0 5866.0\n6770.0 5910.0 5952.0 5810.0 5706.0 5860.0\n6770.0 5912.0 5948.0 5810.0 5700.0 5858.0\n6772.0 5902.0 5958.0 5812.0 5700.0 5868.0\n6764.0 5908.0 5950.0 5822.0 5704.0 5876.0\n6770.0 5916.0 5946.0 5804.0 5694.0 5858.0\n6768.0 5906.0 5948.0 5806.0 5706.0 5862.0\n6774.0 5918.0 5948.0 5816.0 5702.0 5870.0\n6762.0 5922.0 5956.0 5806.0 5702.0 5864.0\n6772.0 5914.0 5946.0 5808.0 5702.0 5866.0\n6770.0 5912.0 5952.0 5810.0 5704.0 5852.0\n6774.0 5908.0 5950.0 5808.0 5696.0 5864.0\n6758.0 5910.0 5950.0 5808.0 5708.0 5854.0\n6770.0 5916.0 5952.0 5806.0 5704.0 5854.0\n6774.0 5912.0 5948.0 5808.0 5702.0 5852.0\n6772.0 5908.0 5944.0 5798.0 5690.0 5864.0\n6762.0 5906.0 5948.0 5810.0 5698.0 5860.0\n6770.0 5916.0 5956.0 5812.0 5706.0 5854.0\n6768.0 5910.0 5952.0 5814.0 5700.0 5854.0\n6762.0 5912.0 5942.0 5812.0 5690.0 5866.0\n6768.0 5916.0 5956.0 5804.0 5698.0 5862.0\n6768.0 5912.0 5956.0 5812.0 5704.0 5866.0\n6770.0 5906.0 5954.0 5820.0 5696.0 5868.0\n6766.0 5914.0 5950.0 5808.0 5702.0 5868.0\n6762.0 5918.0 5954.0 5806.0 5704.0 5862.0\n6750.0 5916.0 5952.0 5810.0 5706.0 5864.0\n6758.0 5922.0 5958.0 5812.0 5706.0 5864.0\n6770.0 5918.0 5960.0 5808.0 5702.0 5866.0\n6770.0 5914.0 5958.0 5816.0 5702.0 5874.0\n6776.0 5912.0 5952.0 5820.0 5702.0 5864.0\n6764.0 5920.0 5952.0 5814.0 5698.0 5864.0\n6770.0 5912.0 5958.0 5810.0 5704.0 5868.0\n6768.0 5908.0 5942.0 5806.0 5702.0 5864.0\n6772.0 5914.0 5948.0 5814.0 5706.0 5868.0\n6768.0 5918.0 5948.0 5810.0 5704.0 5862.0\n6772.0 5906.0 5952.0 5810.0 5698.0 5858.0\n6764.0 5914.0 5944.0 5812.0 5700.0 5854.0\n6770.0 5904.0 5950.0 5798.0 5698.0 5860.0\n6768.0 5914.0 5944.0 5804.0 5696.0 5868.0\n6766.0 5904.0 5958.0 5804.0 5696.0 5860.0\n6758.0 5908.0 5950.0 5794.0 5700.0 5864.0\n6764.0 5916.0 5950.0 5796.0 5698.0 5866.0\n6762.0 5918.0 5952.0 5812.0 5698.0 5858.0\n6768.0 5914.0 5946.0 5806.0 5702.0 5856.0\n6772.0 5910.0 5948.0 5810.0 5708.0 5860.0\n6758.0 5918.0 5950.0 5798.0 5706.0 5870.0\n6768.0 5908.0 5956.0 5812.0 5700.0 5864.0\n6772.0 5912.0 5956.0 5806.0 5694.0 5872.0\n6766.0 5908.0 5952.0 5806.0 5710.0 5876.0\n6766.0 5908.0 5952.0 5810.0 5706.0 5860.0\n6772.0 5916.0 5950.0 5806.0 5710.0 5860.0\n6772.0 5914.0 5942.0 5804.0 5714.0 5862.0\n6764.0 5916.0 5946.0 5812.0 5712.0 5868.0\n6770.0 5914.0 5948.0 5798.0 5704.0 5864.0\n6766.0 5908.0 5942.0 5798.0 5696.0 5862.0\n6768.0 5914.0 5942.0 5814.0 5702.0 5860.0\n6770.0 5908.0 5946.0 5798.0 5708.0 5864.0\n6770.0 5910.0 5948.0 5808.0 5702.0 5864.0\n6762.0 5912.0 5960.0 5792.0 5706.0 5864.0\n6756.0 5916.0 5952.0 5806.0 5704.0 5864.0\n6770.0 5906.0 5942.0 5798.0 5708.0 5866.0\n6766.0 5908.0 5952.0 5810.0 5710.0 5860.0\n6770.0 5916.0 5946.0 5818.0 5696.0 5862.0\n6770.0 5908.0 5954.0 5802.0 5702.0 5860.0\n6766.0 5908.0 5956.0 5810.0 5706.0 5868.0\n6768.0 5908.0 5958.0 5796.0 5702.0 5866.0\n6772.0 5908.0 5946.0 5802.0 5704.0 5864.0\n6774.0 5912.0 5952.0 5812.0 5700.0 5864.0\n6770.0 5918.0 5942.0 5798.0 5700.0 5860.0\n6772.0 5914.0 5942.0 5798.0 5712.0 5858.0\n6770.0 5906.0 5962.0 5814.0 5708.0 5860.0\n6766.0 5908.0 5942.0 5798.0 5704.0 5862.0\n6768.0 5926.0 5948.0 5804.0 5700.0 5884.0\n6764.0 5918.0 5944.0 5798.0 5694.0 5868.0\n6768.0 5910.0 5942.0 5792.0 5694.0 5860.0\n6774.0 5918.0 5946.0 5798.0 5706.0 5864.0\n6764.0 5904.0 5954.0 5796.0 5698.0 5866.0\n6764.0 5916.0 5964.0 5802.0 5706.0 5868.0\n6772.0 5916.0 5948.0 5804.0 5698.0 5838.0\n6770.0 5902.0 5948.0 5802.0 5706.0 5860.0\n6756.0 5910.0 5952.0 5810.0 5694.0 5856.0\n6766.0 5898.0 5942.0 5810.0 5708.0 5862.0\n6758.0 5912.0 5948.0 5804.0 5706.0 5860.0\n6772.0 5914.0 5952.0 5798.0 5704.0 5864.0\n6762.0 5908.0 5946.0 5804.0 5694.0 5862.0\n6756.0 5918.0 5942.0 5806.0 5698.0 5864.0\n6770.0 5918.0 5948.0 5800.0 5696.0 5860.0\n6770.0 5916.0 5952.0 5796.0 5690.0 5866.0\n6766.0 5912.0 5946.0 5810.0 5696.0 5866.0\n6770.0 5910.0 5950.0 5804.0 5706.0 5864.0\n6772.0 5908.0 5946.0 5798.0 5706.0 5850.0\n6774.0 5918.0 5942.0 5814.0 5706.0 5860.0\n6756.0 5912.0 5948.0 5810.0 5700.0 5866.0\n6766.0 5914.0 5956.0 5806.0 5708.0 5856.0\n6766.0 5914.0 5958.0 5796.0 5690.0 5854.0\n6774.0 5906.0 5950.0 5796.0 5698.0 5864.0\n6762.0 5908.0 5948.0 5804.0 5702.0 5862.0\n6760.0 5910.0 5948.0 5806.0 5698.0 5866.0\n6770.0 5916.0 5958.0 5804.0 5698.0 5870.0\n6772.0 5912.0 5950.0 5804.0 5706.0 5858.0\n6774.0 5906.0 5944.0 5798.0 5700.0 5864.0\n6758.0 5908.0 5956.0 5798.0 5704.0 5860.0\n6772.0 5910.0 5940.0 5808.0 5708.0 5856.0\n6766.0 5914.0 5940.0 5810.0 5704.0 5856.0\n6770.0 5908.0 5952.0 5802.0 5696.0 5868.0\n6762.0 5918.0 5952.0 5810.0 5702.0 5862.0\n6762.0 5920.0 5956.0 5804.0 5706.0 5866.0\n6768.0 5902.0 5950.0 5810.0 5696.0 5854.0\n6764.0 5916.0 5952.0 5804.0 5694.0 5862.0\n