6816.0 5910.0 5938.0 5808.0 5694.0 5866.0\n6800.0 5912.0 5956.0 5806.0 5704.0 5868.0\n6816.0 5918.0 5954.0 5802.0 5694.0 5860.0\n6820.0 5920.0 5950.0 5810.0 5700.0 5866.0\n6818.0 5918.0 5952.0 5804.0 5694.0 5876.0\n6816.0 5918.0 5956.0 5802.0 5702.0 5868.0\n6822.0 5916.0 5952.0 5806.0 5694.0 5864.0\n6814.0 5916.0 5940.0 5800.0 5690.0 5842.0\n6810.0 5918.0 5956.0 5806.0 5700.0 5862.0\n6816.0 5920.0 5944.0 5808.0 5692.0 5864.0\n6814.0 5920.0 5950.0 5808.0 5704.0 5864.0\n6816.0 5910.0 5946.0 5810.0 5698.0 5858.0\n6818.0 5914.0 5948.0 5804.0 5694.0 5870.0\n6822.0 5902.0 5946.0 5810.0 5702.0 5862.0\n6818.0 5916.0 5946.0 5810.0 5700.0 5858.0\n6820.0 5918.0 5948.0 5804.0 5702.0 5860.0\n6814.0 5914.0 5942.0 5802.0 5698.0 5868.0\n6824.0 5920.0 5952.0 5812.0 5698.0 5866.0\n6828.0 5910.0 5958.0 5806.0 5706.0 5856.0\n6832.0 5926.0 5946.0 5804.0 5706.0 5858.0\n6824.0 5914.0 5950.0 5804.0 5702.0 5864.0\n6830.0 5914.0 5956.0 5814.0 5704.0 5862.0\n6826.0 5910.0 5950.0 5814.0 5702.0 5862.0\n6830.0 5916.0 5960.0 5816.0 5710.0 5862.0\n6828.0 5910.0 5950.0 5802.0 5694.0 5866.0\n6830.0 5920.0 5960.0 5802.0 5706.0 5866.0\n6816.0 5904.0 5952.0 5806.0 5702.0 5866.0\n6822.0 5924.0 5956.0 5818.0 5708.0 5860.0\n6856.0 5898.0 5948.0 5816.0 5700.0 5864.0\n6856.0 5924.0 5960.0 5820.0 5706.0 5864.0\n6872.0 5918.0 5958.0 5822.0 5724.0 5858.0\n6886.0 5922.0 5968.0 5826.0 5722.0 5878.0\n6938.0 5920.0 5974.0 5828.0 5720.0 5870.0\n6958.0 5920.0 5976.0 5844.0 5740.0 5870.0\n6988.0 5924.0 5994.0 5872.0 5742.0 5866.0\n7008.0 5930.0 5992.0 5896.0 5754.0 5870.0\n7020.0 5928.0 5998.0 5906.0 5764.0 5880.0\n7038.0 5924.0 6014.0 5930.0 5760.0 5868.0\n7068.0 5932.0 6010.0 5950.0 5792.0 5876.0\n7086.0 5932.0 6022.0 5978.0 5794.0 5872.0\n7144.0 5940.0 6028.0 6010.0 5806.0 5870.0\n7160.0 5970.0 6054.0 6032.0 5818.0 5876.0\n7160.0 5948.0 6060.0 6068.0 5836.0 5886.0\n7234.0 5944.0 6066.0 6156.0 5856.0 5866.0\n7242.0 5948.0 6082.0 6174.0 5870.0 5876.0\n7270.0 5948.0 6086.0 6206.0 5894.0 5880.0\n7290.0 5946.0 6084.0 6258.0 5928.0 5876.0\n7304.0 5952.0 6092.0 6284.0 5940.0 5870.0\n7320.0 5960.0 6094.0 6350.0 5976.0 5878.0\n7358.0 5964.0 6100.0 6396.0 6014.0 5872.0\n7386.0 5972.0 6096.0 6440.0 6058.0 5880.0\n7364.0 5970.0 6114.0 6490.0 6082.0 5866.0\n7400.0 5968.0 6122.0 6558.0 6114.0 5870.0\n7416.0 5986.0 6118.0 6590.0 6140.0 5880.0\n7414.0 5984.0 6114.0 6626.0 6168.0 5872.0\n7434.0 5978.0 6126.0 6680.0 6204.0 5884.0\n7450.0 6008.0 6122.0 6700.0 6234.0 5880.0\n7442.0 6006.0 6128.0 6724.0 6244.0 5884.0\n7444.0 6004.0 6126.0 6740.0 6262.0 5876.0\n7462.0 6004.0 6130.0 6754.0 6282.0 5884.0\n7458.0 6008.0 6124.0 6764.0 6286.0 5882.0\n7460.0 6000.0 6134.0 6774.0 6298.0 5882.0\n7462.0 6010.0 6134.0 6782.0 6304.0 5876.0\n7458.0 6002.0 6130.0 6786.0 6304.0 5882.0\n7442.0 6012.0 6126.0 6788.0 6292.0 5884.0\n7452.0 6006.0 6130.0 6780.0 6292.0 5874.0\n7466.0 6002.0 6134.0 6778.0 6306.0 5872.0\n7468.0 5996.0 6138.0 6780.0 6324.0 5870.0\n7482.0 5996.0 6162.0 6782.0 6340.0 5874.0\n7492.0 6002.0 6142.0 6788.0 6358.0 5878.0\n7478.0 6002.0 6166.0 6778.0 6356.0 5868.0\n7484.0 5998.0 6156.0 6744.0 6364.0 5872.0\n7478.0 5996.0 6166.0 6700.0 6346.0 5878.0\n7480.0 5984.0 6160.0 6664.0 6308.0 5868.0\n7480.0 5978.0 6156.0 6610.0 6304.0 5860.0\n7478.0 5980.0 6166.0 6558.0 6274.0 5862.0\n7474.0 5986.0 6154.0 6514.0 6264.0 5858.0\n7460.0 5958.0 6140.0 6398.0 6212.0 5864.0\n7438.0 5954.0 6154.0 6354.0 6188.0 5866.0\n7406.0 5966.0 6114.0 6256.0 6118.0 5868.0\n7346.0 5948.0 6106.0 6210.0 6076.0 5856.0\n7284.0 5950.0 6092.0 6126.0 6014.0 5862.0\n7278.0 5948.0 6084.0 6086.0 5984.0 5870.0\n7166.0 5936.0 6064.0 6008.0 5900.0 5860.0\n7180.0 5928.0 6024.0 5974.0 5874.0 5862.0\n7114.0 5928.0 6024.0 5948.0 5844.0 5858.0\n7082.0 5924.0 6020.0 5928.0 5814.0 5868.0\n7026.0 5896.0 6016.0 5900.0 5796.0 5856.0\n7020.0 5914.0 6008.0 5894.0 5770.0 5860.0\n6998.0 5912.0 5998.0 5872.0 5754.0 5862.0\n6970.0 5908.0 6002.0 5850.0 5748.0 5856.0\n6970.0 5912.0 5992.0 5850.0 5736.0 5862.0\n6956.0 5910.0 5996.0 5850.0 5746.0 5862.0\n6938.0 5906.0 5986.0 5848.0 5738.0 5862.0\n6946.0 5920.0 5984.0 5850.0 5734.0 5866.0\n6942.0 5910.0 5982.0 5842.0 5732.0 5872.0\n6940.0 5906.0 5986.0 5824.0 5722.0 5856.0\n6926.0 5912.0 5990.0 5834.0 5724.0 5866.0\n6910.0 5920.0 5992.0 5838.0 5726.0 5866.0\n6918.0 5912.0 5982.0 5846.0 5732.0 5868.0\n6914.0 5910.0 5982.0 5840.0 5732.0 5864.0\n6900.0 5908.0 5976.0 5838.0 5720.0 5868.0\n6900.0 5912.0 5982.0 5832.0 5724.0 5866.0\n6890.0 5910.0 5976.0 5828.0 5726.0 5860.0\n6894.0 5898.0 5984.0 5822.0 5714.0 5874.0\n6900.0 5914.0 5962.0 5820.0 5716.0 5864.0\n6902.0 5920.0 5980.0 5822.0 5710.0 5862.0\n6874.0 5906.0 5972.0 5824.0 5718.0 5864.0\n6890.0 5890.0 5972.0 5816.0 5716.0 5854.0\n6866.0 5916.0 5972.0 5818.0 5722.0 5850.0\n6866.0 5896.0 5978.0 5834.0 5716.0 5868.0\n6880.0 5920.0 5972.0 5826.0 5712.0 5866.0\n6880.0 5920.0 5964.0 5820.0 5712.0 5852.0\n6874.0 5908.0 5964.0 5806.0 5710.0 5866.0\n6874.0 5908.0 5968.0 5816.0 5706.0 5860.0\n6876.0 5914.0 5968.0 5816.0 5718.0 5862.0\n6860.0 5880.0 5972.0 5824.0 5704.0 5856.0\n6874.0 5910.0 5974.0 5822.0 5716.0 5862.0\n6874.0 5906.0 5956.0 5826.0 5704.0 5864.0\n6872.0 5908.0 5964.0 5820.0 5710.0 5850.0\n6868.0 5908.0 5966.0 5812.0 5708.0 5866.0\n6876.0 5914.0 5960.0 5814.0 5712.0 5858.0\n6874.0 5906.0 5970.0 5810.0 5708.0 5864.0\n6872.0 5908.0 5962.0 5812.0 5696.0 5878.0\n6872.0 5916.0 5960.0 5812.0 5700.0 5864.0\n6874.0 5924.0 5976.0 5814.0 5702.0 5868.0\n6874.0 5912.0 5968.0 5820.0 5710.0 5862.0\n6874.0 5920.0 5964.0 5820.0 5708.0 5862.0\n6868.0 5918.0 5964.0 5824.0 5698.0 5862.0\n6862.0 5914.0 5966.0 5814.0 5702.0 5868.0\n6864.0 5912.0 5970.0 5808.0 5702.0 5862.0\n6878.0 5906.0 5960.0 5812.0 5704.0 5866.0\n6870.0 5910.0 5970.0 5812.0 5702.0 5860.0\n6872.0 5920.0 5962.0 5820.0 5702.0 5870.0\n6872.0 5912.0 5950.0 5796.0 5708.0 5860.0\n6864.0 5914.0 5956.0 5812.0 5704.0 5866.0\n6876.0 5918.0 5964.0 5818.0 5712.0 5872.0\n6880.0 5912.0 5954.0 5820.0 5694.0 5872.0\n6870.0 5912.0 5966.0 5810.0 5708.0 5866.0\n6868.0 5916.0 5958.0 5820.0 5696.0 5862.0\n6874.0 5910.0 5956.0 5816.0 5704.0 5852.0\n6874.0 5912.0 5954.0 5808.0 5700.0 5860.0\n6872.0 5910.0 5958.0 5802.0 5708.0 5864.0\n6874.0 5918.0 5958.0 5818.0 5702.0 5856.0\n6870.0 5916.0 5962.0 5812.0 5708.0 5872.0\n6876.0 5912.0 5956.0 5814.0 5708.0 5862.0\n6870.0 5926.0 5950.0 5814.0 5698.0 5868.0\n6872.0 5910.0 5958.0 5810.0 5708.0 5864.0\n6878.0 5910.0 5962.0 5810.0 5706.0 5868.0\n6880.0 5904.0 5948.0 5814.0 5702.0 5862.0\n6866.0 5912.0 5950.0 5816.0 5710.0 5862.0\n6870.0 5918.0 5960.0 5806.0 5696.0 5862.0\n6876.0 5902.0 5956.0 5814.0 5706.0 5868.0\n6868.0 5912.0 5952.0 5812.0 5702.0 5866.0\n6860.0 5920.0 5954.0 5810.0 5702.0 5868.0\n6874.0 5910.0 5954.0 5812.0 5698.0 5860.0\n6876.0 5910.0 5950.0 5810.0 5698.0 5860.0\n6872.0 5912.0 5950.0 5816.0 5710.0 5866.0\n6876.0 5908.0 5960.0 5806.0 5700.0 5856.0\n6870.0 5912.0 5950.0 5804.0 5710.0 5858.0\n6882.0 5908.0 5956.0 5806.0 5682.0 5862.0\n6880.0 5916.0 5956.0 5802.0 5702.0 5860.0\n6880.0 5920.0 5944.0 5808.0 5708.0 5866.0\n6872.0 5922.0 5944.0 5804.0 5700.0 5866.0\n6880.0 5914.0 5958.0 5804.0 5694.0 5866.0\n6874.0 5920.0 5958.0 5818.0 5706.0 5856.0\n6884.0 5912.0 5966.0 5816.0 5702.0 5866.0\n6876.0 5914.0 5952.0 5800.0 5706.0 5862.0\n6878.0 5912.0 5954.0 5824.0 5696.0 5864.0\n6870.0 5922.0 5952.0 5812.0 5704.0 5872.0\n6874.0 5906.0 5946.0 5818.0 5694.0 5852.0\n6872.0 5912.0 5956.0 5798.0 5700.0 5854.0\n6868.0 5902.0 5952.0 5808.0 5696.0 5892.0\n6872.0 5906.0 5956.0 5806.0 5698.0 5864.0\n6880.0 5908.0 5950.0 5812.0 5700.0 5862.0\n6866.0 5908.0 5952.0 5802.0 5696.0 5860.0\n6872.0 5912.0 5960.0 5816.0 5692.0 5868.0\n6874.0 5920.0 5950.0 5808.0 5698.0 5866.0\n6862.0 5904.0 5954.0 5814.0 5694.0 5860.0\n6864.0 5912.0 5950.0 5810.0 5700.0 5860.0\n6868.0 5906.0 5958.0 5806.0 5692.0 5862.0\n6872.0 5918.0 5948.0 5794.0 5690.0 5850.0\n6872.0 5908.0 5954.0 5802.0 5696.0 5852.0\n6868.0 5908.0 5952.0 5810.0 5706.0 5838.0\n6880.0 5910.0 5948.0 5806.0 5696.0 5866.0\n6872.0 5902.0 5952.0 5794.0 5696.0 5866.0\n6876.0 5908.0 5960.0 5806.0 5702.0 5862.0\n6880.0 5918.0 5954.0 5804.0 5702.0 5862.0\n6872.0 5914.0 5960.0 5810.0 5700.0 5870.0\n6870.0 5914.0 5956.0 5806.0 5696.0 5868.0\n6868.0 5912.0 5944.0 5810.0 5706.0 5868.0\n6876.0 5910.0 5950.0 5806.0 5704.0 5860.0\n6874.0 5916.0 5962.0 5806.0 5702.0 5864.0\n6864.0 5906.0 5952.0 5802.0 5700.0 5860.0\n6878.0 5908.0 5952.0 5814.0 5700.0 5868.0\n6874.0 5908.0 5956.0 5808.0 5694.0 5858.0\n6878.0 5906.0 5952.0 5800.0 5698.0 5868.0\n6872.0 5902.0 5950.0 5812.0 5696.0 5866.0\n6878.0 5920.0 5954.0 5794.0 5702.0 5866.0\n6876.0 5910.0 5950.0 5814.0 5702.0 5860.0\n6876.0 5922.0 5942.0 5800.0 5700.0 5864.0\n6866.0 5914.0 5954.0 5808.0 5704.0 5860.0\n6866.0 5916.0 5944.0 5802.0 5706.0 5864.0\n6876.0 5920.0 5950.0 5806.0 5708.0 5858.0\n6886.0 5920.0 5956.0 5798.0 5706.0 5858.0\n6878.0 5916.0 5958.0 5808.0 5696.0 5862.0\n6876.0 5916.0 5950.0 5804.0 5700.0 5858.0\n6868.0 5906.0 5948.0 5802.0 5690.0 5866.0\n6870.0 5914.0 5964.0 5808.0 5692.0 5866.0\n6880.0 5908.0 5942.0 5806.0 5694.0 5860.0\n6882.0 5910.0 5956.0 5808.0 5702.0 5868.0\n6876.0 5914.0 5952.0 5808.0 5700.0 5858.0\n6884.0 5918.0 5954.0 5812.0 5702.0 5864.0\n6876.0 5922.0 5950.0 5798.0 5706.0 5866.0\n6880.0 5910.0 5950.0 5802.0 5700.0 5866.0\n6872.0 5908.0 5952.0 5800.0 5704.0 5866.0\n6874.0 5916.0 5944.0 5806.0 5704.0 5858.0\n6874.0 5918.0 5954.0 5796.0 5694.0 5868.0\n6876.0 5912.0 5954.0 5808.0 5692.0 5870.0\n6874.0 5918.0 5950.0 5798.0 5700.0 5862.0\n6878.0 5914.0 5960.0 5814.0 5704.0 5862.0\n6882.0 5912.0 5950.0 5810.0 5706.0 5860.0\n6882.0 5922.0 5960.0 5806.0 5686.0 5866.0\n6868.0 5918.0 5958.0 5804.0 5702.0 5868.0\n6880.0 5912.0 5956.0 5808.0 5704.0 5864.0\n6878.0 5918.0 5954.0 5814.0 5696.0 5864.0\n6870.0 5904.0 5960.0 5812.0 5696.0 5866.0\n6876.0 5900.0 5946.0 5806.0 5698.0 5860.0\n6874.0 5914.0 5954.0 5810.0 5710.0 5868.0\n6866.0 5912.0 5950.0 5808.0 5700.0 5866.0\n6876.0 5912.0 5950.0 5800.0 5694.0 5864.0\n6878.0 5910.0 5944.0 5812.0 5704.0 5858.0\n6878.0 5912.0 5956.0 5808.0 5698.0 5870.0\n6876.0 5912.0 5954.0 5816.0 5700.0 5866.0\n6876.0 5902.0 5950.0 5806.0 5706.0 5860.0\n6876.0 5918.0 5956.0 5810.0 5700.0 5868.0\n6862.0 5908.0 5956.0 5796.0 5698.0 5856.0\n6884.0 5906.0 5950.0 5802.0 5700.0 5864.0\n6868.0 5922.0 5952.0 5796.0 5700.0 5866.0\n6872.0 5904.0 5952.0 5802.0 5708.0 5856.0\n6874.0 5922.0 5944.0 5788.0 5694.0 5866.0\n6876.0 5916.0 5950.0 5794.0 5700.0 5868.0\n6872.0 5920.0 5960.0 5804.0 5690.0 5852.0\n6870.0 5918.0 5962.0 5806.0 5700.0 5862.0\n6878.0 5914.0 5950.0 5804.0 5694.0 5864.0\n6872.0 5910.0 5958.0 5800.0 5702.0 5866.0\n6860.0 5914.0 5956.0 5800.0 5694.0 5866.0\n6872.0 5908.0 5948.0 5802.0 5696.0 5850.0\n6870.0 5912.0 5960.0 5812.0 5704.0 5862.0\n6866.0 5914.0 5954.0 5800.0 5706.0 5854.0\n6870.0 5912.0 5948.0 5796.0 5698.0 5862.0\n6878.0 5914.0 5950.0 5796.0 5694.0 5862.0\n6868.0 5906.0 5948.0 5810.0 5702.0 5866.0\n6878.0 5922.0 5944.0 5806.0 5694.0 5864.0\n