6752.0 5902.0 5938.0 5796.0 5698.0 5858.0\n6748.0 5914.0 5936.0 5798.0 5690.0 5866.0\n6738.0 5900.0 5940.0 5794.0 5694.0 5868.0\n6748.0 5912.0 5938.0 5798.0 5696.0 5856.0\n6750.0 5912.0 5950.0 5796.0 5696.0 5862.0\n6750.0 5912.0 5938.0 5796.0 5696.0 5862.0\n6746.0 5912.0 5940.0 5794.0 5694.0 5868.0\n6742.0 5910.0 5932.0 5796.0 5704.0 5862.0\n6742.0 5908.0 5944.0 5794.0 5694.0 5864.0\n6742.0 5898.0 5944.0 5804.0 5692.0 5864.0\n6752.0 5908.0 5932.0 5802.0 5690.0 5868.0\n6748.0 5912.0 5938.0 5800.0 5700.0 5866.0\n6754.0 5912.0 5938.0 5800.0 5700.0 5864.0\n6752.0 5914.0 5944.0 5796.0 5696.0 5858.0\n6758.0 5914.0 5940.0 5796.0 5686.0 5862.0\n6756.0 5908.0 5938.0 5796.0 5700.0 5860.0\n6754.0 5910.0 5938.0 5802.0 5700.0 5870.0\n6754.0 5908.0 5944.0 5798.0 5696.0 5866.0\n6752.0 5916.0 5950.0 5794.0 5698.0 5866.0\n6760.0 5906.0 5934.0 5804.0 5696.0 5860.0\n6766.0 5922.0 5946.0 5800.0 5680.0 5850.0\n6774.0 5914.0 5944.0 5804.0 5700.0 5872.0\n6766.0 5902.0 5938.0 5806.0 5708.0 5858.0\n6772.0 5912.0 5946.0 5792.0 5706.0 5866.0\n6786.0 5918.0 5952.0 5802.0 5700.0 5868.0\n6808.0 5914.0 5952.0 5806.0 5698.0 5860.0\n6804.0 5920.0 5944.0 5806.0 5704.0 5862.0\n6828.0 5926.0 5950.0 5800.0 5704.0 5866.0\n6856.0 5914.0 5952.0 5812.0 5708.0 5860.0\n6870.0 5914.0 5960.0 5822.0 5718.0 5866.0\n6876.0 5922.0 5968.0 5830.0 5722.0 5862.0\n6896.0 5916.0 5960.0 5844.0 5720.0 5868.0\n6926.0 5920.0 5980.0 5848.0 5736.0 5872.0\n6936.0 5928.0 5978.0 5860.0 5744.0 5874.0\n6966.0 5924.0 5982.0 5900.0 5748.0 5874.0\n6994.0 5920.0 5998.0 5926.0 5758.0 5878.0\n7014.0 5932.0 5996.0 5950.0 5786.0 5878.0\n7034.0 5938.0 6000.0 5982.0 5792.0 5882.0\n7058.0 5934.0 6024.0 6002.0 5806.0 5876.0\n7092.0 5944.0 6028.0 6028.0 5812.0 5872.0\n7154.0 5944.0 6048.0 6102.0 5834.0 5870.0\n7190.0 5956.0 6054.0 6132.0 5860.0 5874.0\n7242.0 5968.0 6058.0 6192.0 5888.0 5876.0\n7272.0 5966.0 6070.0 6232.0 5912.0 5872.0\n7304.0 5960.0 6082.0 6290.0 5978.0 5876.0\n7314.0 5958.0 6092.0 6338.0 5998.0 5886.0\n7346.0 5978.0 6094.0 6444.0 6094.0 5882.0\n7384.0 5978.0 6112.0 6486.0 6138.0 5882.0\n7386.0 5990.0 6102.0 6562.0 6194.0 5892.0\n7436.0 6004.0 6110.0 6606.0 6216.0 5882.0\n7484.0 6022.0 6122.0 6624.0 6258.0 5876.0\n7478.0 6016.0 6112.0 6640.0 6302.0 5886.0\n7492.0 6038.0 6128.0 6682.0 6312.0 5880.0\n7490.0 6038.0 6122.0 6700.0 6324.0 5892.0\n7490.0 6030.0 6122.0 6734.0 6322.0 5886.0\n7484.0 6028.0 6128.0 6730.0 6324.0 5886.0\n7480.0 6026.0 6122.0 6728.0 6320.0 5884.0\n7482.0 6038.0 6114.0 6730.0 6314.0 5884.0\n7472.0 6032.0 6108.0 6720.0 6288.0 5880.0\n7464.0 6040.0 6118.0 6724.0 6284.0 5876.0\n7470.0 6022.0 6116.0 6716.0 6292.0 5888.0\n7470.0 6028.0 6112.0 6702.0 6284.0 5882.0\n7472.0 6026.0 6124.0 6662.0 6274.0 5870.0\n7460.0 6020.0 6126.0 6638.0 6268.0 5872.0\n7458.0 6010.0 6128.0 6602.0 6246.0 5868.0\n7452.0 5994.0 6108.0 6544.0 6220.0 5872.0\n7462.0 6006.0 6114.0 6516.0 6198.0 5866.0\n7414.0 5994.0 6122.0 6462.0 6188.0 5872.0\n7408.0 5988.0 6106.0 6420.0 6164.0 5862.0\n7356.0 5992.0 6094.0 6332.0 6116.0 5872.0\n7342.0 5982.0 6094.0 6304.0 6090.0 5858.0\n7294.0 5978.0 6078.0 6200.0 6030.0 5856.0\n7262.0 5974.0 6058.0 6174.0 6006.0 5860.0\n7190.0 5962.0 6040.0 6078.0 5946.0 5860.0\n7154.0 5960.0 6032.0 6040.0 5912.0 5862.0\n7088.0 5958.0 6026.0 5982.0 5862.0 5858.0\n7054.0 5948.0 6006.0 5942.0 5818.0 5868.0\n6992.0 5942.0 5994.0 5920.0 5784.0 5872.0\n6938.0 5940.0 5984.0 5898.0 5768.0 5864.0\n6898.0 5928.0 5980.0 5878.0 5744.0 5868.0\n6874.0 5930.0 5966.0 5862.0 5730.0 5854.0\n6836.0 5922.0 5966.0 5856.0 5732.0 5864.0\n6834.0 5922.0 5952.0 5840.0 5726.0 5864.0\n6820.0 5926.0 5952.0 5842.0 5734.0 5860.0\n6810.0 5928.0 5956.0 5832.0 5724.0 5864.0\n6806.0 5920.0 5970.0 5830.0 5710.0 5842.0\n6814.0 5928.0 5962.0 5832.0 5718.0 5864.0\n6816.0 5924.0 5954.0 5828.0 5718.0 5858.0\n6812.0 5924.0 5964.0 5828.0 5710.0 5864.0\n6808.0 5918.0 5954.0 5822.0 5718.0 5866.0\n6810.0 5924.0 5956.0 5828.0 5714.0 5862.0\n6820.0 5920.0 5960.0 5816.0 5720.0 5862.0\n6810.0 5926.0 5962.0 5816.0 5718.0 5864.0\n6814.0 5914.0 5956.0 5830.0 5706.0 5850.0\n6816.0 5918.0 5966.0 5818.0 5710.0 5862.0\n6810.0 5918.0 5970.0 5824.0 5712.0 5866.0\n6808.0 5922.0 5952.0 5826.0 5712.0 5860.0\n6808.0 5916.0 5958.0 5812.0 5712.0 5860.0\n6802.0 5920.0 5960.0 5818.0 5720.0 5852.0\n6810.0 5910.0 5960.0 5822.0 5708.0 5854.0\n6806.0 5916.0 5950.0 5820.0 5706.0 5868.0\n6804.0 5934.0 5952.0 5816.0 5710.0 5870.0\n6810.0 5922.0 5950.0 5816.0 5708.0 5866.0\n6788.0 5918.0 5954.0 5818.0 5710.0 5858.0\n6798.0 5922.0 5956.0 5824.0 5700.0 5870.0\n6794.0 5914.0 5958.0 5806.0 5686.0 5862.0\n6802.0 5912.0 5954.0 5820.0 5704.0 5866.0\n6792.0 5916.0 5944.0 5804.0 5706.0 5860.0\n6790.0 5920.0 5948.0 5822.0 5712.0 5864.0\n6798.0 5918.0 5950.0 5814.0 5716.0 5868.0\n6792.0 5920.0 5956.0 5816.0 5704.0 5852.0\n6788.0 5918.0 5962.0 5824.0 5698.0 5860.0\n6792.0 5916.0 5950.0 5814.0 5702.0 5860.0\n6788.0 5920.0 5948.0 5808.0 5702.0 5864.0\n6788.0 5922.0 5956.0 5814.0 5714.0 5864.0\n6782.0 5916.0 5940.0 5814.0 5708.0 5872.0\n6790.0 5930.0 5948.0 5822.0 5706.0 5868.0\n6790.0 5922.0 5944.0 5806.0 5700.0 5864.0\n6780.0 5914.0 5950.0 5814.0 5698.0 5862.0\n6794.0 5920.0 5952.0 5804.0 5704.0 5870.0\n6794.0 5924.0 5944.0 5810.0 5704.0 5862.0\n6798.0 5918.0 5954.0 5812.0 5710.0 5864.0\n6794.0 5926.0 5954.0 5814.0 5700.0 5862.0\n6790.0 5920.0 5950.0 5810.0 5694.0 5862.0\n6788.0 5926.0 5950.0 5822.0 5698.0 5864.0\n6786.0 5920.0 5952.0 5812.0 5704.0 5862.0\n6790.0 5924.0 5956.0 5814.0 5702.0 5858.0\n6788.0 5918.0 5950.0 5814.0 5706.0 5858.0\n6782.0 5920.0 5954.0 5808.0 5700.0 5860.0\n6794.0 5924.0 5946.0 5802.0 5698.0 5866.0\n6788.0 5922.0 5946.0 5804.0 5706.0 5858.0\n6786.0 5920.0 5946.0 5798.0 5704.0 5858.0\n6788.0 5924.0 5956.0 5810.0 5700.0 5860.0\n6786.0 5924.0 5946.0 5812.0 5702.0 5868.0\n6792.0 5924.0 5942.0 5806.0 5704.0 5860.0\n6780.0 5912.0 5944.0 5814.0 5700.0 5862.0\n6788.0 5918.0 5944.0 5804.0 5702.0 5856.0\n6796.0 5928.0 5950.0 5810.0 5704.0 5864.0\n6790.0 5922.0 5950.0 5812.0 5692.0 5858.0\n6782.0 5922.0 5946.0 5812.0 5698.0 5870.0\n6790.0 5918.0 5950.0 5818.0 5694.0 5864.0\n6790.0 5922.0 5946.0 5804.0 5708.0 5864.0\n6782.0 5922.0 5954.0 5814.0 5698.0 5862.0\n6786.0 5920.0 5948.0 5808.0 5696.0 5860.0\n6792.0 5926.0 5952.0 5940.0 5702.0 5866.0\n6782.0 5924.0 5946.0 5802.0 5702.0 5870.0\n6778.0 5924.0 5944.0 5814.0 5698.0 5864.0\n6788.0 5922.0 5954.0 5808.0 5704.0 5854.0\n6790.0 5918.0 5942.0 5818.0 5696.0 5864.0\n6778.0 5920.0 5940.0 5800.0 5706.0 5856.0\n6788.0 5922.0 5954.0 5816.0 5704.0 5860.0\n6780.0 5920.0 5942.0 5842.0 5706.0 5862.0\n6794.0 5908.0 5940.0 5812.0 5700.0 5862.0\n6786.0 5910.0 5954.0 5810.0 5696.0 5870.0\n6812.0 5906.0 5948.0 5814.0 5698.0 5866.0\n6792.0 5924.0 5952.0 5806.0 5700.0 5860.0\n6782.0 5920.0 5944.0 5800.0 5708.0 5860.0\n6788.0 5926.0 5950.0 5804.0 5710.0 5864.0\n6794.0 5910.0 5948.0 5804.0 5704.0 5864.0\n6788.0 5924.0 5946.0 5794.0 5696.0 5860.0\n6780.0 5920.0 5948.0 5814.0 5704.0 5866.0\n6786.0 5924.0 5948.0 5804.0 5698.0 5864.0\n6780.0 5910.0 5956.0 5796.0 5696.0 5856.0\n6788.0 5918.0 5948.0 5792.0 5696.0 5872.0\n6798.0 5912.0 5934.0 5812.0 5700.0 5860.0\n6782.0 5914.0 5946.0 5804.0 5696.0 5866.0\n6788.0 5926.0 5952.0 5800.0 5692.0 5858.0\n6782.0 5916.0 5948.0 5798.0 5692.0 5862.0\n6778.0 5914.0 5948.0 5814.0 5696.0 5862.0\n6784.0 5920.0 5950.0 5802.0 5706.0 5858.0\n6790.0 5922.0 5954.0 5802.0 5700.0 5870.0\n6782.0 5920.0 5944.0 5798.0 5696.0 5854.0\n6788.0 5916.0 5942.0 5804.0 5698.0 5862.0\n6782.0 5918.0 5952.0 5806.0 5706.0 5862.0\n6788.0 5934.0 5956.0 5802.0 5704.0 5866.0\n6780.0 5910.0 5942.0 5806.0 5700.0 5856.0\n6780.0 5920.0 5954.0 5796.0 5682.0 5864.0\n6782.0 5924.0 5944.0 5804.0 5690.0 5864.0\n6784.0 5922.0 5946.0 5802.0 5702.0 5872.0\n6780.0 5914.0 5946.0 5802.0 5704.0 5870.0\n6790.0 5906.0 5952.0 5802.0 5704.0 5850.0\n6790.0 5910.0 5954.0 5794.0 5702.0 5860.0\n6792.0 5918.0 5934.0 5814.0 5694.0 5864.0\n6780.0 5922.0 5938.0 5806.0 5698.0 5864.0\n6790.0 5908.0 5946.0 5794.0 5702.0 5862.0\n6790.0 5926.0 5946.0 5804.0 5704.0 5866.0\n6786.0 5916.0 5940.0 5806.0 5702.0 5866.0\n6782.0 5918.0 5934.0 5810.0 5704.0 5864.0\n6778.0 5924.0 5948.0 5800.0 5694.0 5864.0\n6774.0 5918.0 5946.0 5808.0 5700.0 5860.0\n6782.0 5916.0 5948.0 5806.0 5696.0 5860.0\n6788.0 5910.0 5944.0 5806.0 5696.0 5860.0\n6788.0 5916.0 5938.0 5806.0 5698.0 5862.0\n6790.0 5918.0 5948.0 5808.0 5702.0 5870.0\n6788.0 5918.0 5948.0 5816.0 5704.0 5858.0\n6784.0 5928.0 5942.0 5806.0 5696.0 5856.0\n6782.0 5922.0 5940.0 5806.0 5704.0 5862.0\n6780.0 5916.0 5948.0 5800.0 5694.0 5858.0\n6778.0 5912.0 5944.0 5806.0 5702.0 5864.0\n6782.0 5914.0 5942.0 5804.0 5696.0 5866.0\n6782.0 5920.0 5950.0 5800.0 5704.0 5864.0\n6790.0 5930.0 5944.0 5808.0 5702.0 5866.0\n6786.0 5916.0 5940.0 5802.0 5692.0 5864.0\n6790.0 5910.0 5952.0 5806.0 5700.0 5860.0\n6790.0 5914.0 5956.0 5804.0 5692.0 5866.0\n6796.0 5918.0 5940.0 5800.0 5696.0 5872.0\n6778.0 5918.0 5940.0 5806.0 5692.0 5868.0\n6792.0 5928.0 5946.0 5798.0 5696.0 5860.0\n6786.0 5922.0 5952.0 5806.0 5698.0 5858.0\n6784.0 5930.0 5942.0 5796.0 5702.0 5860.0\n6790.0 5916.0 5948.0 5798.0 5700.0 5866.0\n6796.0 5924.0 5942.0 5798.0 5698.0 5860.0\n6786.0 5918.0 5948.0 5798.0 5698.0 5868.0\n6778.0 5908.0 5942.0 5788.0 5710.0 5862.0\n6782.0 5926.0 5940.0 5804.0 5694.0 5868.0\n6786.0 5922.0 5952.0 5796.0 5694.0 5868.0\n6788.0 5924.0 5938.0 5806.0 5694.0 5866.0\n6782.0 5918.0 5948.0 5798.0 5702.0 5868.0\n6784.0 5916.0 5940.0 5802.0 5696.0 5868.0\n6792.0 5914.0 5942.0 5806.0 5698.0 5860.0\n6792.0 5904.0 5952.0 5812.0 5706.0 5864.0\n6788.0 5922.0 5944.0 5796.0 5698.0 5870.0\n6788.0 5924.0 5946.0 5804.0 5698.0 5870.0\n6800.0 5912.0 5942.0 5800.0 5704.0 5868.0\n6786.0 5918.0 5950.0 5812.0 5700.0 5864.0\n6786.0 5914.0 5950.0 5804.0 5702.0 5864.0\n6788.0 5918.0 5942.0 5794.0 5696.0 5864.0\n6798.0 5918.0 5946.0 5788.0 5702.0 5866.0\n6788.0 5918.0 5944.0 5806.0 5698.0 5858.0\n6782.0 5924.0 5944.0 5804.0 5698.0 5864.0\n6798.0 5924.0 5948.0 5802.0 5700.0 5864.0\n6782.0 5930.0 5946.0 5798.0 5700.0 5864.0\n6788.0 5918.0 5952.0 5808.0 5700.0 5852.0\n