6788.0 5920.0 5954.0 5812.0 5712.0 5862.0\n6782.0 5920.0 5952.0 5810.0 5710.0 5880.0\n6780.0 5920.0 5954.0 5810.0 5714.0 5862.0\n6788.0 5922.0 5960.0 5816.0 5712.0 5864.0\n6782.0 5928.0 5960.0 5800.0 5712.0 5862.0\n6792.0 5912.0 5964.0 5812.0 5716.0 5858.0\n6788.0 5920.0 5962.0 5806.0 5714.0 5866.0\n6792.0 5928.0 5956.0 5808.0 5724.0 5858.0\n6780.0 5920.0 5958.0 5808.0 5710.0 5862.0\n6792.0 5914.0 5956.0 5808.0 5710.0 5858.0\n6790.0 5922.0 5962.0 5798.0 5716.0 5872.0\n6800.0 5918.0 5960.0 5816.0 5718.0 5868.0\n6792.0 5930.0 5956.0 5808.0 5716.0 5876.0\n6792.0 5916.0 5956.0 5800.0 5712.0 5864.0\n6788.0 5928.0 5950.0 5810.0 5716.0 5870.0\n6788.0 5920.0 5952.0 5812.0 5718.0 5870.0\n6796.0 5922.0 5950.0 5816.0 5716.0 5864.0\n6796.0 5922.0 5954.0 5802.0 5714.0 5862.0\n6794.0 5920.0 5956.0 5816.0 5710.0 5866.0\n6782.0 5926.0 5954.0 5800.0 5712.0 5870.0\n6788.0 5918.0 5962.0 5810.0 5712.0 5864.0\n6792.0 5924.0 5958.0 5812.0 5714.0 5858.0\n6782.0 5920.0 5956.0 5828.0 5710.0 5866.0\n6786.0 5918.0 5960.0 5820.0 5716.0 5860.0\n6790.0 5910.0 5962.0 5812.0 5718.0 5860.0\n6792.0 5912.0 5954.0 5806.0 5710.0 5864.0\n6782.0 5916.0 5958.0 5814.0 5720.0 5866.0\n6786.0 5922.0 5954.0 5814.0 5712.0 5872.0\n6786.0 5920.0 5958.0 5806.0 5708.0 5862.0\n6792.0 5918.0 5958.0 5808.0 5716.0 5872.0\n6788.0 5926.0 5956.0 5818.0 5716.0 5866.0\n6792.0 5918.0 5952.0 5806.0 5712.0 5868.0\n6788.0 5920.0 5958.0 5810.0 5716.0 5862.0\n6788.0 5924.0 5962.0 5808.0 5708.0 5862.0\n6794.0 5922.0 5958.0 5808.0 5714.0 5860.0\n6790.0 5918.0 5952.0 5816.0 5712.0 5868.0\n6790.0 5912.0 5956.0 5814.0 5714.0 5858.0\n6794.0 5924.0 5962.0 5810.0 5714.0 5862.0\n6788.0 5928.0 5954.0 5810.0 5714.0 5858.0\n6788.0 5920.0 5954.0 5812.0 5704.0 5866.0\n6786.0 5916.0 5962.0 5810.0 5710.0 5866.0\n6788.0 5918.0 5954.0 5810.0 5710.0 5870.0\n6782.0 5922.0 5952.0 5802.0 5702.0 5860.0\n6790.0 5926.0 5956.0 5816.0 5714.0 5858.0\n6782.0 5924.0 5956.0 5822.0 5708.0 5860.0\n6792.0 5920.0 5954.0 5818.0 5716.0 5870.0\n6782.0 5912.0 5962.0 5810.0 5716.0 5868.0\n6790.0 5918.0 5962.0 5816.0 5716.0 5866.0\n6790.0 5920.0 5966.0 5818.0 5722.0 5862.0\n6788.0 5928.0 5950.0 5818.0 5712.0 5868.0\n6798.0 5924.0 5954.0 5804.0 5720.0 5872.0\n6792.0 5920.0 5954.0 5816.0 5718.0 5860.0\n6796.0 5916.0 5956.0 5812.0 5718.0 5854.0\n6796.0 5922.0 5956.0 5816.0 5710.0 5864.0\n6792.0 5916.0 5960.0 5820.0 5718.0 5870.0\n6792.0 5922.0 5954.0 5806.0 5714.0 5870.0\n6802.0 5920.0 5960.0 5808.0 5714.0 5862.0\n6794.0 5914.0 5956.0 5818.0 5714.0 5868.0\n6802.0 5924.0 5956.0 5810.0 5716.0 5860.0\n6808.0 5914.0 5964.0 5812.0 5718.0 5862.0\n6814.0 5922.0 5950.0 5822.0 5724.0 5872.0\n6828.0 5916.0 5968.0 5822.0 5718.0 5868.0\n6826.0 5922.0 5958.0 5812.0 5718.0 5870.0\n6830.0 5920.0 5960.0 5822.0 5722.0 5866.0\n6828.0 5924.0 5964.0 5826.0 5724.0 5868.0\n6848.0 5922.0 5964.0 5820.0 5718.0 5858.0\n6844.0 5916.0 5960.0 5826.0 5718.0 5864.0\n6870.0 5922.0 5966.0 5830.0 5724.0 5868.0\n6866.0 5920.0 5976.0 5822.0 5732.0 5858.0\n6918.0 5930.0 5966.0 5820.0 5740.0 5874.0\n6924.0 5924.0 5974.0 5830.0 5734.0 5862.0\n6942.0 5926.0 5986.0 5846.0 5748.0 5872.0\n6954.0 5932.0 5982.0 5856.0 5766.0 5874.0\n7004.0 5926.0 5986.0 5886.0 5782.0 5866.0\n7012.0 5920.0 5998.0 5894.0 5782.0 5870.0\n7022.0 5934.0 6010.0 5932.0 5796.0 5870.0\n7024.0 5920.0 6016.0 5948.0 5804.0 5872.0\n7048.0 5932.0 6014.0 5966.0 5822.0 5874.0\n7074.0 5928.0 6022.0 5978.0 5822.0 5878.0\n7084.0 5938.0 6028.0 5980.0 5826.0 5882.0\n7090.0 5932.0 6016.0 5976.0 5844.0 5882.0\n7120.0 5952.0 6044.0 6020.0 5848.0 5882.0\n7126.0 5952.0 6040.0 6028.0 5848.0 5884.0\n7148.0 5932.0 6052.0 6052.0 5866.0 5880.0\n7158.0 5952.0 6060.0 6068.0 5878.0 5878.0\n7200.0 5934.0 6070.0 6118.0 5896.0 5878.0\n7238.0 5946.0 6076.0 6160.0 5904.0 5880.0\n7254.0 5944.0 6084.0 6170.0 5914.0 5876.0\n7258.0 5946.0 6080.0 6196.0 5940.0 5882.0\n7270.0 5952.0 6086.0 6220.0 5954.0 5872.0\n7312.0 5950.0 6088.0 6248.0 5960.0 5874.0\n7296.0 5962.0 6100.0 6284.0 6000.0 5878.0\n7304.0 5954.0 6102.0 6292.0 6012.0 5880.0\n7314.0 5952.0 6098.0 6350.0 6024.0 5888.0\n7322.0 5966.0 6094.0 6354.0 6040.0 5880.0\n7336.0 5976.0 6108.0 6384.0 6058.0 5880.0\n7342.0 5974.0 6086.0 6406.0 6070.0 5874.0\n7360.0 5976.0 6102.0 6404.0 6078.0 5884.0\n7354.0 5970.0 6104.0 6410.0 6096.0 5880.0\n7354.0 5976.0 6102.0 6430.0 6104.0 5876.0\n7352.0 5980.0 6120.0 6422.0 6108.0 5884.0\n7342.0 5972.0 6108.0 6434.0 6118.0 5876.0\n7364.0 5978.0 6112.0 6438.0 6126.0 5880.0\n7354.0 5970.0 6100.0 6430.0 6132.0 5890.0\n7350.0 5968.0 6104.0 6436.0 6126.0 5872.0\n7350.0 5974.0 6112.0 6426.0 6142.0 5878.0\n7348.0 5972.0 6118.0 6436.0 6134.0 5880.0\n7338.0 5966.0 6116.0 6438.0 6136.0 5878.0\n7346.0 5974.0 6106.0 6444.0 6122.0 5880.0\n7348.0 5972.0 6108.0 6440.0 6136.0 5884.0\n7342.0 5970.0 6106.0 6426.0 6126.0 5882.0\n7344.0 5976.0 6108.0 6424.0 6122.0 5876.0\n7342.0 5968.0 6118.0 6418.0 6110.0 5876.0\n7338.0 5974.0 6114.0 6428.0 6092.0 5876.0\n7338.0 5960.0 6116.0 6420.0 6070.0 5868.0\n7338.0 5968.0 6098.0 6342.0 6040.0 5866.0\n7306.0 5962.0 6102.0 6304.0 6022.0 5864.0\n7284.0 5956.0 6104.0 6272.0 6012.0 5874.0\n7254.0 5956.0 6086.0 6238.0 5994.0 5872.0\n7236.0 5960.0 6094.0 6192.0 5968.0 5878.0\n7230.0 5954.0 6080.0 6174.0 5956.0 5880.0\n7158.0 5942.0 6066.0 6102.0 5922.0 5874.0\n7110.0 5944.0 6058.0 6074.0 5900.0 5874.0\n7048.0 5940.0 6044.0 5978.0 5860.0 5862.0\n7040.0 5942.0 6022.0 5980.0 5836.0 5870.0\n6992.0 5934.0 6014.0 5952.0 5806.0 5866.0\n6958.0 5926.0 6018.0 5908.0 5806.0 5866.0\n6892.0 5942.0 5990.0 5880.0 5748.0 5864.0\n6862.0 5914.0 5984.0 5870.0 5756.0 5862.0\n6830.0 5914.0 5970.0 5860.0 5742.0 5868.0\n6818.0 5920.0 5972.0 5848.0 5736.0 5868.0\n6788.0 5910.0 5972.0 5854.0 5726.0 5862.0\n6798.0 5922.0 5962.0 5838.0 5724.0 5860.0\n6788.0 5920.0 5972.0 5868.0 5726.0 5864.0\n6790.0 5916.0 5968.0 5826.0 5720.0 5866.0\n6786.0 5914.0 5954.0 5824.0 5724.0 5860.0\n6782.0 5914.0 5958.0 5822.0 5718.0 5862.0\n6784.0 5918.0 5960.0 5824.0 5728.0 5856.0\n6782.0 5918.0 5966.0 5820.0 5722.0 5868.0\n6772.0 5914.0 5964.0 5822.0 5720.0 5864.0\n6778.0 5910.0 5950.0 5814.0 5716.0 5856.0\n6772.0 5914.0 5952.0 5810.0 5726.0 5864.0\n6772.0 5918.0 5966.0 5826.0 5720.0 5872.0\n6772.0 5924.0 5966.0 5822.0 5710.0 5852.0\n6768.0 5906.0 5960.0 5826.0 5722.0 5868.0\n6754.0 5910.0 5968.0 5826.0 5710.0 5870.0\n6762.0 5922.0 5958.0 5818.0 5716.0 5856.0\n6768.0 5916.0 5960.0 5826.0 5718.0 5862.0\n6776.0 5918.0 5956.0 5816.0 5716.0 5868.0\n6770.0 5912.0 5960.0 5820.0 5714.0 5866.0\n6788.0 5908.0 5956.0 5818.0 5706.0 5866.0\n6774.0 5916.0 5958.0 5820.0 5722.0 5868.0\n6768.0 5920.0 5956.0 5818.0 5710.0 5862.0\n6772.0 5912.0 5966.0 5820.0 5714.0 5862.0\n6776.0 5908.0 5958.0 5816.0 5706.0 5860.0\n6762.0 5918.0 5954.0 5822.0 5714.0 5858.0\n6770.0 5908.0 5962.0 5820.0 5706.0 5862.0\n6772.0 5920.0 5956.0 5814.0 5716.0 5870.0\n6764.0 5916.0 5952.0 5816.0 5706.0 5870.0\n6770.0 5908.0 5964.0 5816.0 5722.0 5864.0\n6766.0 5924.0 5958.0 5822.0 5714.0 5866.0\n6774.0 5914.0 5966.0 5806.0 5710.0 5856.0\n6780.0 5912.0 5962.0 5804.0 5708.0 5868.0\n6762.0 5910.0 5970.0 5820.0 5714.0 5868.0\n6774.0 5910.0 5964.0 5816.0 5704.0 5868.0\n6774.0 5916.0 5960.0 5812.0 5716.0 5872.0\n6770.0 5908.0 5964.0 5816.0 5714.0 5866.0\n6764.0 5914.0 5960.0 5824.0 5720.0 5862.0\n6772.0 5912.0 5962.0 5804.0 5714.0 5866.0\n6766.0 5916.0 5958.0 5804.0 5710.0 5864.0\n6770.0 5916.0 5958.0 5824.0 5716.0 5870.0\n6766.0 5910.0 5956.0 5806.0 5718.0 5864.0\n6780.0 5918.0 5968.0 5816.0 5706.0 5868.0\n6766.0 5908.0 5958.0 5812.0 5704.0 5870.0\n6770.0 5924.0 5956.0 5812.0 5710.0 5874.0\n6770.0 5912.0 5960.0 5822.0 5718.0 5866.0\n6774.0 5914.0 5942.0 5814.0 5714.0 5864.0\n6772.0 5916.0 5964.0 5806.0 5712.0 5866.0\n6768.0 5912.0 5960.0 5816.0 5710.0 5862.0\n6768.0 5908.0 5958.0 5820.0 5708.0 5876.0\n6772.0 5912.0 5954.0 5816.0 5716.0 5862.0\n6772.0 5924.0 5956.0 5810.0 5706.0 5858.0\n6760.0 5922.0 5962.0 5818.0 5704.0 5866.0\n6770.0 5906.0 5952.0 5820.0 5704.0 5864.0\n6764.0 5922.0 5954.0 5820.0 5708.0 5856.0\n6764.0 5914.0 5956.0 5820.0 5710.0 5858.0\n6768.0 5908.0 5956.0 5810.0 5714.0 5864.0\n6764.0 5924.0 5964.0 5814.0 5700.0 5860.0\n6768.0 5910.0 5954.0 5810.0 5706.0 5862.0\n6770.0 5908.0 5954.0 5800.0 5714.0 5864.0\n6768.0 5916.0 5960.0 5806.0 5708.0 5852.0\n6768.0 5904.0 5954.0 5806.0 5718.0 5868.0\n6768.0 5918.0 5956.0 5808.0 5708.0 5868.0\n6772.0 5904.0 5950.0 5814.0 5708.0 5864.0\n6764.0 5914.0 5950.0 5806.0 5706.0 5864.0\n6766.0 5916.0 5956.0 5814.0 5702.0 5868.0\n6760.0 5920.0 5948.0 5814.0 5706.0 5856.0\n6766.0 5908.0 5958.0 5808.0 5712.0 5872.0\n6772.0 5918.0 5962.0 5820.0 5714.0 5864.0\n6768.0 5914.0 5950.0 5802.0 5700.0 5860.0\n6760.0 5916.0 5948.0 5818.0 5714.0 5872.0\n6756.0 5920.0 5954.0 5814.0 5714.0 5858.0\n6806.0 5914.0 5940.0 5808.0 5700.0 5862.0\n6764.0 5914.0 5948.0 5782.0 5710.0 5864.0\n6764.0 5906.0 5952.0 5806.0 5706.0 5864.0\n6766.0 5908.0 5958.0 5804.0 5706.0 5866.0\n6762.0 5914.0 5956.0 5816.0 5714.0 5866.0\n6740.0 5918.0 5942.0 5802.0 5712.0 5858.0\n6770.0 5918.0 5958.0 5814.0 5706.0 5872.0\n6766.0 5916.0 5958.0 5816.0 5710.0 5866.0\n6768.0 5922.0 5958.0 5810.0 5708.0 5870.0\n6760.0 5910.0 5962.0 5810.0 5706.0 5854.0\n6768.0 5924.0 5952.0 5808.0 5710.0 5870.0\n6764.0 5916.0 5968.0 5810.0 5710.0 5868.0\n6760.0 5912.0 5950.0 5810.0 5708.0 5870.0\n6748.0 5906.0 5956.0 5812.0 5716.0 5866.0\n6762.0 5920.0 5948.0 5804.0 5706.0 5862.0\n6764.0 5916.0 5956.0 5810.0 5704.0 5856.0\n6768.0 5904.0 5952.0 5810.0 5716.0 5862.0\n6770.0 5906.0 5958.0 5794.0 5706.0 5868.0\n6762.0 5908.0 5950.0 5808.0 5704.0 5874.0\n6762.0 5908.0 5954.0 5806.0 5708.0 5862.0\n6762.0 5912.0 5952.0 5804.0 5706.0 5862.0\n6770.0 5910.0 5954.0 5808.0 5706.0 5864.0\n6766.0 5912.0 5952.0 5806.0 5720.0 5870.0\n6768.0 5908.0 5956.0 5808.0 5712.0 5872.0\n6762.0 5914.0 5956.0 5812.0 5708.0 5866.0\n6762.0 5922.0 5958.0 5812.0 5710.0 5860.0\n6772.0 5918.0 5946.0 5818.0 5708.0 5870.0\n6760.0 5912.0 5944.0 5808.0 5712.0 5866.0\n6770.0 5918.0 5956.0 5812.0 5708.0 5862.0\n6760.0 5912.0 5958.0 5810.0 5708.0 5856.0\n6768.0 5942.0 5954.0 5810.0 5708.0 5866.0\n6766.0 5920.0 5956.0 5800.0 5710.0 5866.0\n6766.0 5914.0 5952.0 5816.0 5700.0 5866.0\n6768.0 5916.0 5950.0 5810.0 5700.0 5860.0\n6766.0 5920.0 5950.0 5812.0 5706.0 5874.0\n6752.0 5916.0 5952.0 5802.0 5704.0 5868.0\n6760.0 5912.0 5944.0 5808.0 5712.0 5868.0\n6758.0 5900.0 5958.0 5802.0 5704.0 5864.0\n6762.0 5918.0 5952.0 5802.0 5710.0 5860.0\n6756.0 5908.0 5960.0 5810.0 5704.0 5862.0\n6768.0 5916.0 5948.0 5802.0 5702.0 5870.0\n6764.0 5912.0 5950.0 5806.0 5710.0 5862.0\n