6728.0 5908.0 5928.0 5806.0 5686.0 5858.0\n6726.0 5894.0 5924.0 5802.0 5698.0 5870.0\n6722.0 5912.0 5926.0 5800.0 5690.0 5864.0\n6726.0 5898.0 5924.0 5802.0 5704.0 5868.0\n6732.0 5900.0 5920.0 5804.0 5704.0 5864.0\n6716.0 5896.0 5934.0 5802.0 5688.0 5866.0\n6726.0 5904.0 5918.0 5792.0 5694.0 5864.0\n6728.0 5896.0 5926.0 5790.0 5696.0 5866.0\n6724.0 5892.0 5928.0 5800.0 5698.0 5860.0\n6728.0 5896.0 5928.0 5792.0 5698.0 5862.0\n6732.0 5898.0 5920.0 5800.0 5694.0 5860.0\n6726.0 5898.0 5918.0 5796.0 5690.0 5872.0\n6726.0 5902.0 5926.0 5800.0 5688.0 5860.0\n6734.0 5898.0 5924.0 5804.0 5698.0 5866.0\n6728.0 5904.0 5922.0 5788.0 5688.0 5862.0\n6726.0 5898.0 5922.0 5798.0 5696.0 5862.0\n6732.0 5896.0 5916.0 5796.0 5694.0 5864.0\n6732.0 5900.0 5924.0 5794.0 5696.0 5876.0\n6736.0 5902.0 5926.0 5796.0 5686.0 5868.0\n6730.0 5900.0 5924.0 5806.0 5694.0 5870.0\n6734.0 5902.0 5930.0 5806.0 5702.0 5866.0\n6734.0 5906.0 5924.0 5800.0 5696.0 5864.0\n6728.0 5896.0 5930.0 5804.0 5686.0 5862.0\n6740.0 5904.0 5924.0 5798.0 5698.0 5866.0\n6732.0 5900.0 5926.0 5802.0 5696.0 5860.0\n6724.0 5908.0 5926.0 5800.0 5694.0 5866.0\n6736.0 5900.0 5920.0 5804.0 5698.0 5866.0\n6736.0 5900.0 5930.0 5810.0 5702.0 5868.0\n6742.0 5900.0 5928.0 5804.0 5700.0 5874.0\n6740.0 5902.0 5916.0 5802.0 5704.0 5860.0\n6734.0 5904.0 5930.0 5798.0 5704.0 5864.0\n6736.0 5904.0 5928.0 5804.0 5708.0 5866.0\n6738.0 5912.0 5930.0 5802.0 5696.0 5866.0\n6746.0 5906.0 5936.0 5794.0 5708.0 5870.0\n6734.0 5906.0 5936.0 5810.0 5700.0 5866.0\n6738.0 5896.0 5936.0 5802.0 5696.0 5860.0\n6744.0 5908.0 5922.0 5804.0 5696.0 5860.0\n6750.0 5906.0 5926.0 5808.0 5710.0 5870.0\n6754.0 5914.0 5930.0 5806.0 5698.0 5868.0\n6762.0 5902.0 5922.0 5806.0 5702.0 5866.0\n6766.0 5906.0 5928.0 5816.0 5706.0 5856.0\n6766.0 5908.0 5934.0 5816.0 5708.0 5862.0\n6780.0 5904.0 5926.0 5816.0 5716.0 5868.0\n6788.0 5920.0 5932.0 5792.0 5706.0 5866.0\n6806.0 5914.0 5940.0 5802.0 5710.0 5862.0\n6816.0 5912.0 5938.0 5804.0 5714.0 5874.0\n6856.0 5904.0 5940.0 5830.0 5724.0 5870.0\n6856.0 5904.0 5944.0 5824.0 5732.0 5862.0\n6890.0 5902.0 5944.0 5830.0 5740.0 5870.0\n6908.0 5918.0 5950.0 5842.0 5742.0 5878.0\n6934.0 5902.0 5956.0 5858.0 5756.0 5866.0\n6962.0 5908.0 5970.0 5878.0 5762.0 5870.0\n6990.0 5914.0 5972.0 5906.0 5776.0 5856.0\n7030.0 5908.0 5982.0 5934.0 5794.0 5874.0\n7054.0 5922.0 5990.0 5966.0 5822.0 5872.0\n7094.0 5918.0 6006.0 6034.0 5850.0 5872.0\n7098.0 5920.0 6008.0 6064.0 5858.0 5874.0\n7156.0 5932.0 6020.0 6094.0 5866.0 5868.0\n7166.0 5942.0 6030.0 6128.0 5878.0 5876.0\n7322.0 5964.0 6044.0 6202.0 5916.0 5880.0\n7302.0 5952.0 6048.0 6240.0 5952.0 5878.0\n7296.0 5982.0 6046.0 6294.0 5988.0 5882.0\n7292.0 5978.0 6048.0 6334.0 6034.0 5876.0\n7290.0 5966.0 6058.0 6422.0 6088.0 5878.0\n7316.0 5980.0 6064.0 6478.0 6116.0 5876.0\n7360.0 5978.0 6076.0 6546.0 6174.0 5878.0\n7362.0 5996.0 6076.0 6560.0 6188.0 5870.0\n7362.0 5994.0 6068.0 6592.0 6204.0 5866.0\n7350.0 5994.0 6072.0 6604.0 6212.0 5872.0\n7358.0 6010.0 6064.0 6598.0 6240.0 5878.0\n7358.0 6000.0 6070.0 6614.0 6228.0 5878.0\n7360.0 5996.0 6076.0 6616.0 6236.0 5880.0\n7356.0 6002.0 6066.0 6606.0 6232.0 5882.0\n7352.0 6004.0 6062.0 6606.0 6222.0 5872.0\n7340.0 5998.0 6070.0 6616.0 6222.0 5868.0\n7350.0 6002.0 6076.0 6594.0 6198.0 5880.0\n7342.0 6002.0 6066.0 6594.0 6198.0 5874.0\n7322.0 5990.0 6068.0 6594.0 6184.0 5872.0\n7340.0 5998.0 6084.0 6548.0 6182.0 5864.0\n7334.0 5994.0 6066.0 6478.0 6170.0 5868.0\n7318.0 5982.0 6068.0 6460.0 6140.0 5870.0\n7326.0 5984.0 6078.0 6400.0 6114.0 5864.0\n7326.0 5968.0 6066.0 6356.0 6102.0 5864.0\n7334.0 5958.0 6066.0 6314.0 6078.0 5868.0\n7332.0 5962.0 6070.0 6266.0 6052.0 5870.0\n7264.0 5950.0 6056.0 6226.0 6028.0 5872.0\n7242.0 5940.0 6034.0 6114.0 5968.0 5868.0\n7180.0 5938.0 6020.0 6070.0 5930.0 5872.0\n7144.0 5922.0 6016.0 6038.0 5922.0 5856.0\n7068.0 5916.0 5992.0 5958.0 5846.0 5866.0\n7036.0 5912.0 5982.0 5932.0 5814.0 5862.0\n6956.0 5928.0 5966.0 5876.0 5784.0 5864.0\n6918.0 5918.0 5956.0 5850.0 5772.0 5868.0\n6860.0 5910.0 5962.0 5836.0 5748.0 5866.0\n6808.0 5912.0 5940.0 5820.0 5742.0 5874.0\n6762.0 5898.0 5942.0 5828.0 5732.0 5866.0\n6732.0 5896.0 5942.0 5830.0 5724.0 5862.0\n6724.0 5902.0 5950.0 5820.0 5728.0 5868.0\n6714.0 5884.0 5938.0 5806.0 5716.0 5872.0\n6710.0 5896.0 5940.0 5806.0 5712.0 5860.0\n6708.0 5896.0 5940.0 5808.0 5700.0 5862.0\n6712.0 5884.0 5934.0 5816.0 5710.0 5860.0\n6712.0 5896.0 5928.0 5810.0 5704.0 5864.0\n6710.0 5894.0 5934.0 5806.0 5704.0 5862.0\n6708.0 5892.0 5944.0 5810.0 5710.0 5870.0\n6718.0 5900.0 5934.0 5808.0 5700.0 5866.0\n6704.0 5896.0 5930.0 5804.0 5696.0 5868.0\n6706.0 5894.0 5932.0 5806.0 5708.0 5866.0\n6702.0 5902.0 5924.0 5802.0 5714.0 5864.0\n6698.0 5892.0 5924.0 5804.0 5704.0 5862.0\n6702.0 5892.0 5928.0 5806.0 5706.0 5866.0\n6696.0 5904.0 5940.0 5810.0 5706.0 5860.0\n6694.0 5906.0 5934.0 5812.0 5700.0 5868.0\n6702.0 5892.0 5922.0 5806.0 5702.0 5860.0\n6694.0 5898.0 5938.0 5796.0 5694.0 5852.0\n6698.0 5904.0 5926.0 5814.0 5694.0 5862.0\n6702.0 5896.0 5928.0 5814.0 5698.0 5864.0\n6692.0 5896.0 5930.0 5808.0 5702.0 5862.0\n6696.0 5892.0 5932.0 5802.0 5694.0 5868.0\n6700.0 5900.0 5930.0 5804.0 5694.0 5858.0\n6694.0 5902.0 5936.0 5800.0 5694.0 5864.0\n6690.0 5884.0 5920.0 5796.0 5700.0 5878.0\n6700.0 5896.0 5922.0 5798.0 5694.0 5864.0\n6688.0 5900.0 5914.0 5808.0 5698.0 5866.0\n6692.0 5900.0 5926.0 5810.0 5698.0 5862.0\n6692.0 5896.0 5928.0 5798.0 5702.0 5862.0\n6688.0 5900.0 5938.0 5804.0 5700.0 5856.0\n6688.0 5896.0 5924.0 5804.0 5696.0 5858.0\n6684.0 5904.0 5932.0 5810.0 5698.0 5870.0\n6696.0 5890.0 5932.0 5802.0 5694.0 5870.0\n6698.0 5884.0 5932.0 5804.0 5698.0 5870.0\n6696.0 5894.0 5928.0 5798.0 5696.0 5862.0\n6696.0 5898.0 5924.0 5790.0 5686.0 5864.0\n6688.0 5896.0 5932.0 5806.0 5696.0 5860.0\n6698.0 5892.0 5926.0 5794.0 5696.0 5864.0\n6680.0 5898.0 5924.0 5808.0 5692.0 5848.0\n6694.0 5904.0 5924.0 5796.0 5698.0 5866.0\n6678.0 5902.0 5938.0 5796.0 5698.0 5866.0\n6696.0 5904.0 5924.0 5798.0 5700.0 5860.0\n6698.0 5890.0 5928.0 5798.0 5696.0 5858.0\n6696.0 5904.0 5914.0 5804.0 5696.0 5868.0\n6692.0 5888.0 5930.0 5804.0 5696.0 5864.0\n6696.0 5900.0 5910.0 5800.0 5690.0 5866.0\n6694.0 5896.0 5926.0 5796.0 5696.0 5864.0\n6692.0 5898.0 5934.0 5798.0 5696.0 5862.0\n6698.0 5906.0 5938.0 5800.0 5694.0 5856.0\n6698.0 5898.0 5926.0 5796.0 5696.0 5866.0\n6700.0 5898.0 5936.0 5800.0 5696.0 5862.0\n6698.0 5892.0 5930.0 5790.0 5696.0 5862.0\n6696.0 5898.0 5930.0 5800.0 5692.0 5866.0\n6692.0 5900.0 5930.0 5802.0 5694.0 5868.0\n6700.0 5892.0 5926.0 5794.0 5698.0 5870.0\n6694.0 5896.0 5924.0 5800.0 5686.0 5870.0\n6698.0 5898.0 5930.0 5788.0 5688.0 5872.0\n6696.0 5900.0 5926.0 5792.0 5698.0 5862.0\n6694.0 5898.0 5922.0 5792.0 5692.0 5860.0\n6700.0 5902.0 5924.0 5798.0 5686.0 5862.0\n6698.0 5892.0 5922.0 5786.0 5698.0 5872.0\n6694.0 5890.0 5928.0 5800.0 5696.0 5864.0\n6698.0 5906.0 5934.0 5792.0 5692.0 5862.0\n6698.0 5894.0 5926.0 5810.0 5706.0 5866.0\n6694.0 5892.0 5934.0 5798.0 5698.0 5870.0\n6702.0 5894.0 5928.0 5790.0 5692.0 5860.0\n6694.0 5892.0 5930.0 5796.0 5698.0 5862.0\n6702.0 5894.0 5930.0 5794.0 5696.0 5862.0\n6698.0 5894.0 5926.0 5802.0 5696.0 5868.0\n6692.0 5894.0 5926.0 5796.0 5694.0 5858.0\n6696.0 5902.0 5916.0 5792.0 5696.0 5860.0\n6694.0 5894.0 5924.0 5802.0 5694.0 5862.0\n6696.0 5884.0 5924.0 5800.0 5698.0 5874.0\n6698.0 5902.0 5926.0 5800.0 5694.0 5864.0\n6694.0 5898.0 5928.0 5802.0 5684.0 5864.0\n6690.0 5894.0 5932.0 5798.0 5708.0 5866.0\n6696.0 5894.0 5914.0 5798.0 5698.0 5870.0\n6696.0 5896.0 5934.0 5800.0 5694.0 5864.0\n6702.0 5900.0 5930.0 5794.0 5702.0 5864.0\n6696.0 5894.0 5912.0 5794.0 5694.0 5874.0\n6698.0 5896.0 5928.0 5794.0 5686.0 5864.0\n6692.0 5898.0 5922.0 5798.0 5694.0 5878.0\n6694.0 5894.0 5920.0 5802.0 5680.0 5860.0\n6696.0 5886.0 5926.0 5798.0 5698.0 5864.0\n6700.0 5896.0 5924.0 5798.0 5696.0 5864.0\n6700.0 5898.0 5924.0 5798.0 5700.0 5872.0\n6690.0 5910.0 5920.0 5792.0 5696.0 5866.0\n6696.0 5898.0 5926.0 5794.0 5698.0 5866.0\n6692.0 5884.0 5920.0 5802.0 5688.0 5860.0\n6694.0 5894.0 5922.0 5796.0 5694.0 5862.0\n6690.0 5884.0 5928.0 5792.0 5696.0 5864.0\n6700.0 5892.0 5928.0 5800.0 5692.0 5866.0\n6694.0 5884.0 5928.0 5796.0 5692.0 5864.0\n6696.0 5906.0 5926.0 5790.0 5700.0 5868.0\n6704.0 5898.0 5936.0 5798.0 5700.0 5856.0\n6696.0 5892.0 5924.0 5788.0 5690.0 5864.0\n6694.0 5894.0 5938.0 5802.0 5692.0 5866.0\n6698.0 5900.0 5918.0 5794.0 5704.0 5870.0\n6694.0 5896.0 5924.0 5806.0 5692.0 5868.0\n6694.0 5896.0 5920.0 5786.0 5694.0 5868.0\n6702.0 5894.0 5920.0 5796.0 5698.0 5862.0\n6690.0 5898.0 5924.0 5792.0 5698.0 5870.0\n6700.0 5896.0 5918.0 5798.0 5696.0 5860.0\n6698.0 5888.0 5924.0 5792.0 5696.0 5860.0\n6692.0 5894.0 5934.0 5794.0 5696.0 5864.0\n6702.0 5880.0 5924.0 5794.0 5688.0 5860.0\n6700.0 5896.0 5932.0 5792.0 5692.0 5860.0\n6700.0 5890.0 5922.0 5788.0 5700.0 5864.0\n6686.0 5900.0 5922.0 5792.0 5688.0 5860.0\n6702.0 5894.0 5926.0 5798.0 5700.0 5862.0\n6694.0 5898.0 5940.0 5798.0 5702.0 5870.0\n6700.0 5888.0 5926.0 5796.0 5690.0 5868.0\n6692.0 5886.0 5928.0 5804.0 5690.0 5868.0\n6698.0 5890.0 5932.0 5800.0 5696.0 5860.0\n6694.0 5898.0 5930.0 5794.0 5686.0 5860.0\n6692.0 5896.0 5926.0 5800.0 5700.0 5868.0\n6702.0 5892.0 5928.0 5798.0 5694.0 5864.0\n6702.0 5890.0 5922.0 5784.0 5692.0 5858.0\n6694.0 5896.0 5930.0 5802.0 5698.0 5860.0\n6702.0 5896.0 5928.0 5798.0 5700.0 5868.0\n6688.0 5904.0 5926.0 5802.0 5692.0 5866.0\n6698.0 5904.0 5922.0 5802.0 5698.0 5854.0\n6696.0 5890.0 5926.0 5808.0 5710.0 5864.0\n6702.0 5900.0 5928.0 5798.0 5700.0 5856.0\n6698.0 5892.0 5932.0 5804.0 5698.0 5862.0\n6700.0 5904.0 5934.0 5800.0 5694.0 5862.0\n6690.0 5900.0 5930.0 5798.0 5700.0 5866.0\n6700.0 5900.0 5922.0 5788.0 5696.0 5856.0\n6698.0 5896.0 5918.0 5798.0 5698.0 5860.0\n6692.0 5902.0 5924.0 5806.0 5694.0 5870.0\n6702.0 5898.0 5932.0 5786.0 5688.0 5870.0\n6696.0 5886.0 5922.0 5802.0 5690.0 5864.0\n6704.0 5892.0 5922.0 5794.0 5690.0 5866.0\n6700.0 5898.0 5924.0 5800.0 5694.0 5864.0\n6696.0 5892.0 5926.0 5802.0 5700.0 5866.0\n6698.0 5880.0 5920.0 5794.0 5694.0 5866.0\n6696.0 5896.0 5922.0 5800.0 5690.0 5870.0\n6694.0 5892.0 5930.0 5796.0 5696.0 5854.0\n6712.0 5898.0 5932.0 5808.0 5700.0 5868.0\n6706.0 5898.0 5922.0 5792.0 5696.0 5866.0\n6698.0 5888.0 5920.0 5800.0 5686.0 5870.0\n6698.0 5902.0 5926.0 5788.0 5696.0 5874.0\n6698.0 5890.0 5922.0 5794.0 5694.0 5868.0\n6692.0 5902.0 5934.0 5792.0 5698.0 5858.0\n6704.0 5904.0 5926.0 5804.0 5702.0 5862.0\n6700.0 5896.0 5926.0 5802.0 5688.0 5862.0\n6696.0 5906.0 5928.0 5800.0 5694.0 5856.0\n6700.0 5894.0 5920.0 5788.0 5692.0 5858.0\n6702.0 5892.0 5928.0 5792.0 5690.0 5862.0\n6694.0 5900.0 5924.0 5800.0 5686.0 5862.0\n6694.0 5894.0 5924.0 5776.0 5692.0 5858.0\n6702.0 5900.0 5924.0 5792.0 5688.0 5868.0\n6704.0 5894.0 5928.0 5796.0 5694.0 5870.0\n6688.0 5896.0 5918.0 5804.0 5688.0 5858.0\n6706.0 5886.0 5922.0 5802.0 5694.0 5866.0\n6708.0 5902.0 5934.0 5794.0 5700.0 5864.0\n6708.0 5880.0 5930.0 5792.0 5688.0 5862.0\n