6778.0 5914.0 5946.0 5812.0 5704.0 5866.0\n6778.0 5920.0 5956.0 5808.0 5696.0 5862.0\n6770.0 5914.0 5954.0 5800.0 5692.0 5856.0\n6780.0 5900.0 5942.0 5800.0 5696.0 5866.0\n6766.0 5918.0 5936.0 5804.0 5696.0 5870.0\n6766.0 5912.0 5952.0 5806.0 5700.0 5864.0\n6776.0 5918.0 5958.0 5808.0 5690.0 5860.0\n6766.0 5916.0 5946.0 5802.0 5700.0 5870.0\n6768.0 5908.0 5954.0 5792.0 5700.0 5872.0\n6766.0 5918.0 5952.0 5798.0 5696.0 5860.0\n6776.0 5910.0 5946.0 5806.0 5694.0 5858.0\n6776.0 5918.0 5944.0 5798.0 5698.0 5858.0\n6768.0 5910.0 5948.0 5804.0 5694.0 5854.0\n6778.0 5914.0 5946.0 5816.0 5702.0 5858.0\n6778.0 5914.0 5942.0 5808.0 5700.0 5862.0\n6778.0 5916.0 5948.0 5806.0 5702.0 5872.0\n6792.0 5904.0 5954.0 5800.0 5710.0 5864.0\n6782.0 5912.0 5950.0 5804.0 5720.0 5862.0\n6786.0 5912.0 5946.0 5806.0 5704.0 5862.0\n6784.0 5900.0 5944.0 5804.0 5706.0 5868.0\n6780.0 5914.0 5948.0 5806.0 5702.0 5864.0\n6796.0 5914.0 5954.0 5806.0 5702.0 5858.0\n6792.0 5912.0 5958.0 5822.0 5710.0 5866.0\n6804.0 5890.0 5944.0 5812.0 5716.0 5870.0\n6812.0 5910.0 5952.0 5806.0 5710.0 5868.0\n6812.0 5924.0 5960.0 5820.0 5712.0 5874.0\n6826.0 5920.0 5962.0 5806.0 5708.0 5866.0\n6826.0 5918.0 5956.0 5816.0 5710.0 5866.0\n6830.0 5920.0 5960.0 5822.0 5714.0 5862.0\n6832.0 5916.0 5954.0 5814.0 5708.0 5860.0\n6844.0 5916.0 5960.0 5816.0 5712.0 5864.0\n6864.0 5914.0 5954.0 5812.0 5712.0 5866.0\n6892.0 5916.0 5960.0 5816.0 5716.0 5860.0\n6890.0 5930.0 5970.0 5820.0 5728.0 5862.0\n6910.0 5922.0 5966.0 5830.0 5732.0 5872.0\n6938.0 5918.0 5960.0 5852.0 5746.0 5870.0\n6968.0 5922.0 5980.0 5856.0 5764.0 5868.0\n6994.0 5922.0 6002.0 5902.0 5780.0 5874.0\n7014.0 5924.0 6002.0 5916.0 5786.0 5868.0\n7054.0 5928.0 6002.0 5952.0 5806.0 5868.0\n7062.0 5920.0 6020.0 5966.0 5812.0 5868.0\n7104.0 5914.0 6016.0 5998.0 5820.0 5870.0\n7126.0 5930.0 6044.0 5994.0 5830.0 5868.0\n7128.0 5916.0 6034.0 6038.0 5838.0 5878.0\n7166.0 5924.0 6050.0 6066.0 5864.0 5874.0\n7202.0 5940.0 6062.0 6092.0 5866.0 5878.0\n7232.0 5934.0 6072.0 6128.0 5890.0 5876.0\n7280.0 5928.0 6082.0 6168.0 5922.0 5872.0\n7296.0 5942.0 6082.0 6208.0 5942.0 5878.0\n7290.0 5938.0 6082.0 6282.0 5996.0 5880.0\n7304.0 5924.0 6092.0 6306.0 6010.0 5874.0\n7336.0 5944.0 6110.0 6356.0 6064.0 5876.0\n7354.0 5940.0 6114.0 6374.0 6080.0 5862.0\n7366.0 5934.0 6110.0 6424.0 6110.0 5878.0\n7374.0 5948.0 6116.0 6440.0 6124.0 5870.0\n7368.0 5958.0 6124.0 6484.0 6164.0 5876.0\n7386.0 5962.0 6112.0 6492.0 6166.0 5878.0\n7408.0 5956.0 6128.0 6486.0 6190.0 5874.0\n7406.0 5958.0 6116.0 6486.0 6186.0 5880.0\n7406.0 5958.0 6112.0 6494.0 6184.0 5870.0\n7404.0 5960.0 6122.0 6500.0 6174.0 5884.0\n7388.0 5954.0 6098.0 6488.0 6154.0 5872.0\n7390.0 5964.0 6110.0 6490.0 6128.0 5872.0\n7396.0 5950.0 6104.0 6474.0 6112.0 5862.0\n7392.0 5956.0 6098.0 6482.0 6100.0 5860.0\n7384.0 5954.0 6100.0 6444.0 6094.0 5866.0\n7384.0 5942.0 6106.0 6430.0 6084.0 5880.0\n7376.0 5950.0 6098.0 6378.0 6058.0 5866.0\n7372.0 5950.0 6086.0 6350.0 6044.0 5866.0\n7324.0 5948.0 6116.0 6320.0 6026.0 5866.0\n7322.0 5948.0 6086.0 6290.0 6006.0 5868.0\n7268.0 5938.0 6084.0 6256.0 5988.0 5878.0\n7270.0 5936.0 6076.0 6208.0 5980.0 5868.0\n7166.0 5928.0 6066.0 6166.0 5934.0 5866.0\n7176.0 5930.0 6056.0 6120.0 5920.0 5864.0\n7126.0 5942.0 6044.0 6066.0 5892.0 5862.0\n7078.0 5938.0 6042.0 6038.0 5878.0 5868.0\n7050.0 5944.0 6032.0 5988.0 5840.0 5870.0\n7014.0 5938.0 6006.0 5972.0 5832.0 5862.0\n6970.0 5918.0 6006.0 5926.0 5792.0 5866.0\n6934.0 5918.0 6000.0 5904.0 5776.0 5864.0\n6904.0 5932.0 5984.0 5874.0 5756.0 5860.0\n6872.0 5936.0 5980.0 5856.0 5744.0 5864.0\n6816.0 5910.0 5962.0 5826.0 5738.0 5870.0\n6804.0 5916.0 5956.0 5844.0 5726.0 5858.0\n6794.0 5914.0 5966.0 5822.0 5722.0 5860.0\n6806.0 5898.0 5962.0 5826.0 5716.0 5868.0\n6778.0 5900.0 5948.0 5818.0 5726.0 5868.0\n6762.0 5916.0 5956.0 5810.0 5714.0 5864.0\n6756.0 5912.0 5960.0 5816.0 5710.0 5864.0\n6762.0 5914.0 5964.0 5816.0 5718.0 5860.0\n6758.0 5914.0 5962.0 5808.0 5712.0 5860.0\n6762.0 5918.0 5956.0 5810.0 5712.0 5862.0\n6752.0 5908.0 5950.0 5820.0 5714.0 5858.0\n6758.0 5910.0 5952.0 5808.0 5700.0 5862.0\n6754.0 5904.0 5946.0 5800.0 5712.0 5864.0\n6760.0 5910.0 5948.0 5812.0 5718.0 5864.0\n6736.0 5916.0 5946.0 5808.0 5710.0 5868.0\n6748.0 5914.0 5956.0 5810.0 5702.0 5864.0\n6732.0 5916.0 5962.0 5808.0 5706.0 5864.0\n6744.0 5916.0 5952.0 5808.0 5712.0 5866.0\n6750.0 5908.0 5954.0 5812.0 5700.0 5858.0\n6742.0 5914.0 5950.0 5810.0 5706.0 5866.0\n6744.0 5908.0 5958.0 5816.0 5712.0 5862.0\n6732.0 5912.0 5956.0 5808.0 5698.0 5856.0\n6734.0 5916.0 5936.0 5816.0 5700.0 5860.0\n6740.0 5912.0 5950.0 5816.0 5706.0 5858.0\n6740.0 5910.0 5950.0 5810.0 5702.0 5858.0\n6736.0 5906.0 5948.0 5806.0 5700.0 5854.0\n6740.0 5918.0 5948.0 5806.0 5696.0 5868.0\n6742.0 5918.0 5944.0 5806.0 5704.0 5860.0\n6736.0 5916.0 5956.0 5808.0 5700.0 5862.0\n6736.0 5918.0 5952.0 5814.0 5696.0 5864.0\n6736.0 5906.0 5948.0 5808.0 5702.0 5860.0\n6738.0 5910.0 5944.0 5816.0 5708.0 5868.0\n6742.0 5912.0 5950.0 5812.0 5704.0 5862.0\n6744.0 5910.0 5950.0 5810.0 5706.0 5860.0\n6728.0 5914.0 5952.0 5794.0 5704.0 5862.0\n6736.0 5916.0 5944.0 5804.0 5696.0 5866.0\n6738.0 5914.0 5944.0 5810.0 5716.0 5862.0\n6742.0 5916.0 5940.0 5802.0 5704.0 5864.0\n6742.0 5906.0 5944.0 5810.0 5704.0 5864.0\n6740.0 5910.0 5942.0 5804.0 5702.0 5858.0\n6740.0 5916.0 5948.0 5808.0 5700.0 5864.0\n6746.0 5912.0 5954.0 5800.0 5702.0 5868.0\n6740.0 5914.0 5950.0 5814.0 5700.0 5866.0\n6746.0 5914.0 5954.0 5810.0 5704.0 5860.0\n6742.0 5920.0 5940.0 5802.0 5700.0 5854.0\n6742.0 5912.0 5950.0 5794.0 5702.0 5858.0\n6740.0 5916.0 5948.0 5810.0 5694.0 5858.0\n6734.0 5916.0 5952.0 5808.0 5702.0 5866.0\n6738.0 5916.0 5940.0 5806.0 5706.0 5866.0\n6740.0 5910.0 5950.0 5814.0 5694.0 5860.0\n6742.0 5914.0 5950.0 5808.0 5696.0 5846.0\n6728.0 5912.0 5958.0 5808.0 5698.0 5868.0\n6738.0 5912.0 5942.0 5808.0 5694.0 5858.0\n6748.0 5908.0 5946.0 5806.0 5700.0 5878.0\n6744.0 5916.0 5950.0 5794.0 5694.0 5856.0\n6744.0 5910.0 5948.0 5792.0 5704.0 5868.0\n6738.0 5920.0 5954.0 5816.0 5698.0 5860.0\n6734.0 5914.0 5958.0 5804.0 5704.0 5868.0\n6728.0 5910.0 5948.0 5818.0 5704.0 5862.0\n6732.0 5924.0 5948.0 5810.0 5700.0 5868.0\n6738.0 5908.0 5942.0 5800.0 5700.0 5860.0\n6750.0 5920.0 5946.0 5804.0 5706.0 5868.0\n6736.0 5908.0 5938.0 5798.0 5706.0 5864.0\n6740.0 5914.0 5952.0 5794.0 5702.0 5866.0\n6744.0 5904.0 5948.0 5804.0 5696.0 5864.0\n6742.0 5920.0 5946.0 5792.0 5698.0 5854.0\n6742.0 5920.0 5946.0 5806.0 5704.0 5866.0\n6752.0 5918.0 5950.0 5804.0 5704.0 5866.0\n6740.0 5906.0 5954.0 5812.0 5702.0 5854.0\n6750.0 5910.0 5950.0 5804.0 5704.0 5862.0\n6746.0 5912.0 5954.0 5810.0 5692.0 5872.0\n6742.0 5906.0 5950.0 5792.0 5700.0 5862.0\n6736.0 5918.0 5940.0 5802.0 5706.0 5860.0\n6742.0 5916.0 5944.0 5798.0 5702.0 5864.0\n6744.0 5918.0 5948.0 5798.0 5710.0 5866.0\n6744.0 5908.0 5942.0 5802.0 5710.0 5858.0\n6744.0 5928.0 5956.0 5806.0 5700.0 5856.0\n6734.0 5910.0 5958.0 5808.0 5698.0 5860.0\n6744.0 5914.0 5942.0 5796.0 5696.0 5862.0\n6738.0 5912.0 5952.0 5808.0 5702.0 5856.0\n6748.0 5910.0 5948.0 5800.0 5706.0 5856.0\n6730.0 5924.0 5946.0 5800.0 5702.0 5858.0\n6746.0 5914.0 5950.0 5810.0 5698.0 5862.0\n6738.0 5914.0 5950.0 5798.0 5694.0 5862.0\n6744.0 5920.0 5938.0 5802.0 5706.0 5862.0\n6746.0 5914.0 5952.0 5804.0 5704.0 5862.0\n6750.0 5908.0 5942.0 5802.0 5708.0 5862.0\n6744.0 5916.0 5954.0 5796.0 5696.0 5870.0\n6742.0 5904.0 5946.0 5806.0 5698.0 5864.0\n6752.0 5908.0 5940.0 5806.0 5700.0 5856.0\n6744.0 5910.0 5950.0 5806.0 5704.0 5866.0\n6742.0 5908.0 5948.0 5798.0 5696.0 5866.0\n6748.0 5912.0 5956.0 5800.0 5700.0 5862.0\n6746.0 5912.0 5942.0 5812.0 5696.0 5868.0\n6754.0 5916.0 5952.0 5804.0 5698.0 5858.0\n6748.0 5910.0 5950.0 5804.0 5710.0 5862.0\n6742.0 5904.0 5946.0 5804.0 5704.0 5866.0\n6746.0 5906.0 5954.0 5794.0 5692.0 5856.0\n6742.0 5904.0 5950.0 5794.0 5692.0 5862.0\n6750.0 5916.0 5946.0 5804.0 5700.0 5862.0\n6740.0 5904.0 5956.0 5800.0 5698.0 5866.0\n6746.0 5916.0 5948.0 5806.0 5708.0 5866.0\n6742.0 5912.0 5952.0 5806.0 5698.0 5848.0\n6754.0 5910.0 5958.0 5802.0 5704.0 5864.0\n6746.0 5920.0 5950.0 5798.0 5702.0 5856.0\n6736.0 5918.0 5942.0 5804.0 5710.0 5864.0\n6746.0 5920.0 5950.0 5800.0 5700.0 5864.0\n6742.0 5910.0 5930.0 5808.0 5702.0 5860.0\n6748.0 5904.0 5944.0 5800.0 5698.0 5858.0\n6740.0 5910.0 5944.0 5806.0 5694.0 5866.0\n6742.0 5918.0 5952.0 5802.0 5702.0 5870.0\n6744.0 5912.0 5938.0 5798.0 5692.0 5868.0\n6748.0 5912.0 5950.0 5806.0 5696.0 5860.0\n6744.0 5908.0 5948.0 5800.0 5704.0 5860.0\n6744.0 5918.0 5940.0 5802.0 5702.0 5866.0\n6750.0 5906.0 5944.0 5792.0 5696.0 5866.0\n6734.0 5910.0 5952.0 5806.0 5702.0 5868.0\n6744.0 5910.0 5956.0 5802.0 5706.0 5852.0\n6744.0 5908.0 5952.0 5804.0 5706.0 5860.0\n6742.0 5906.0 5950.0 5798.0 5706.0 5866.0\n6748.0 5910.0 5948.0 5802.0 5702.0 5856.0\n6740.0 5914.0 5942.0 5798.0 5702.0 5860.0\n6742.0 5918.0 5950.0 5804.0 5710.0 5866.0\n6744.0 5910.0 5958.0 5806.0 5706.0 5860.0\n6744.0 5914.0 5950.0 5796.0 5706.0 5870.0\n6742.0 5918.0 5948.0 5790.0 5692.0 5864.0\n6744.0 5910.0 5936.0 5788.0 5708.0 5858.0\n6748.0 5918.0 5950.0 5796.0 5704.0 5852.0\n6744.0 5904.0 5948.0 5814.0 5700.0 5864.0\n6742.0 5918.0 5950.0 5804.0 5706.0 5868.0\n6750.0 5906.0 5954.0 5800.0 5696.0 5862.0\n6748.0 5914.0 5956.0 5802.0 5702.0 5868.0\n6744.0 5908.0 5948.0 5802.0 5704.0 5868.0\n6742.0 5912.0 5956.0 5798.0 5708.0 5872.0\n6746.0 5914.0 5950.0 5810.0 5700.0 5856.0\n6738.0 5918.0 5950.0 5790.0 5706.0 5864.0\n6750.0 5912.0 5954.0 5806.0 5696.0 5866.0\n6742.0 5920.0 5948.0 5808.0 5702.0 5862.0\n6734.0 5890.0 5948.0 5794.0 5704.0 5868.0\n6742.0 5916.0 5944.0 5810.0 5696.0 5864.0\n6744.0 5920.0 5950.0 5798.0 5706.0 5864.0\n6746.0 5918.0 5950.0 5802.0 5706.0 5866.0\n6742.0 5914.0 5942.0 5798.0 5698.0 5866.0\n6744.0 5910.0 5942.0 5810.0 5698.0 5860.0\n6742.0 5912.0 5946.0 5802.0 5698.0 5866.0\n6746.0 5916.0 5952.0 5806.0 5696.0 5868.0\n6746.0 5908.0 5944.0 5806.0 5696.0 5860.0\n6744.0 5918.0 5942.0 5798.0 5702.0 5864.0\n6754.0 5908.0 5952.0 5802.0 5710.0 5866.0\n6748.0 5918.0 5950.0 5806.0 5702.0 5860.0\n6738.0 5908.0 5952.0 5800.0 5710.0 5872.0\n6746.0 5906.0 5940.0 5802.0 5698.0 5868.0\n6734.0 5910.0 5952.0 5800.0 5702.0 5868.0\n6746.0 5922.0 5958.0 5796.0 5696.0 5864.0\n