6744.0 5908.0 5946.0 5796.0 5696.0 5866.0\n6740.0 5918.0 5948.0 5810.0 5704.0 5858.0\n6748.0 5920.0 5956.0 5798.0 5700.0 5866.0\n6742.0 5910.0 5948.0 5802.0 5692.0 5868.0\n6740.0 5908.0 5954.0 5796.0 5702.0 5864.0\n6746.0 5910.0 5944.0 5780.0 5696.0 5858.0\n6744.0 5910.0 5932.0 5804.0 5698.0 5860.0\n6746.0 5914.0 5932.0 5788.0 5700.0 5864.0\n6754.0 5916.0 5950.0 5794.0 5700.0 5866.0\n6746.0 5904.0 5950.0 5794.0 5694.0 5864.0\n6754.0 5922.0 5956.0 5792.0 5694.0 5862.0\n6754.0 5916.0 5956.0 5798.0 5694.0 5856.0\n6738.0 5908.0 5952.0 5798.0 5700.0 5862.0\n6742.0 5920.0 5948.0 5804.0 5696.0 5864.0\n6740.0 5914.0 5946.0 5808.0 5698.0 5858.0\n6738.0 5914.0 5948.0 5806.0 5698.0 5864.0\n6746.0 5910.0 5950.0 5794.0 5700.0 5866.0\n6746.0 5918.0 5954.0 5794.0 5702.0 5860.0\n6748.0 5910.0 5938.0 5800.0 5692.0 5866.0\n6744.0 5922.0 5948.0 5796.0 5698.0 5858.0\n6752.0 5910.0 5956.0 5798.0 5706.0 5864.0\n6752.0 5912.0 5940.0 5800.0 5704.0 5866.0\n6754.0 5910.0 5946.0 5808.0 5704.0 5862.0\n6748.0 5910.0 5952.0 5802.0 5712.0 5868.0\n6750.0 5912.0 5946.0 5810.0 5700.0 5858.0\n6766.0 5906.0 5942.0 5806.0 5706.0 5868.0\n6782.0 5924.0 5944.0 5804.0 5702.0 5864.0\n6766.0 5912.0 5942.0 5802.0 5706.0 5862.0\n6806.0 5908.0 5948.0 5806.0 5704.0 5868.0\n6812.0 5918.0 5950.0 5806.0 5716.0 5868.0\n6842.0 5926.0 5948.0 5806.0 5718.0 5856.0\n6850.0 5914.0 5958.0 5812.0 5712.0 5874.0\n6872.0 5910.0 5968.0 5818.0 5718.0 5862.0\n6870.0 5914.0 5970.0 5816.0 5736.0 5858.0\n6904.0 5926.0 5970.0 5828.0 5732.0 5864.0\n6918.0 5916.0 5974.0 5830.0 5748.0 5876.0\n6932.0 5918.0 5978.0 5852.0 5752.0 5870.0\n6960.0 5932.0 5984.0 5864.0 5764.0 5872.0\n7000.0 5934.0 5996.0 5898.0 5764.0 5870.0\n7020.0 5928.0 5996.0 5904.0 5780.0 5878.0\n7044.0 5922.0 6008.0 5934.0 5804.0 5874.0\n7068.0 5930.0 6012.0 5938.0 5810.0 5878.0\n7074.0 5926.0 6028.0 5966.0 5822.0 5872.0\n7080.0 5924.0 6026.0 5996.0 5830.0 5872.0\n7116.0 5936.0 6034.0 6034.0 5844.0 5876.0\n7134.0 5932.0 6042.0 6058.0 5854.0 5870.0\n7158.0 5932.0 6044.0 6100.0 5878.0 5878.0\n7200.0 5932.0 6054.0 6140.0 5906.0 5878.0\n7270.0 5946.0 6062.0 6218.0 5938.0 5876.0\n7286.0 5948.0 6072.0 6252.0 5944.0 5876.0\n7298.0 5968.0 6080.0 6312.0 5998.0 5880.0\n7296.0 5958.0 6092.0 6344.0 6014.0 5882.0\n7326.0 5958.0 6094.0 6416.0 6060.0 5878.0\n7366.0 5966.0 6102.0 6422.0 6078.0 5870.0\n7380.0 5972.0 6094.0 6486.0 6122.0 5878.0\n7370.0 5966.0 6100.0 6512.0 6166.0 5880.0\n7390.0 5968.0 6106.0 6544.0 6174.0 5878.0\n7396.0 5982.0 6116.0 6554.0 6202.0 5886.0\n7422.0 5978.0 6122.0 6598.0 6208.0 5884.0\n7454.0 5988.0 6116.0 6586.0 6222.0 5884.0\n7450.0 5990.0 6114.0 6612.0 6232.0 5890.0\n7452.0 5988.0 6120.0 6608.0 6222.0 5882.0\n7444.0 5976.0 6124.0 6616.0 6216.0 5884.0\n7440.0 5972.0 6114.0 6612.0 6210.0 5886.0\n7442.0 5974.0 6112.0 6606.0 6198.0 5884.0\n7440.0 5980.0 6114.0 6606.0 6184.0 5878.0\n7430.0 5974.0 6110.0 6598.0 6184.0 5884.0\n7422.0 5980.0 6106.0 6596.0 6172.0 5884.0\n7426.0 5972.0 6114.0 6594.0 6158.0 5880.0\n7422.0 5972.0 6098.0 6564.0 6152.0 5874.0\n7420.0 5976.0 6108.0 6522.0 6134.0 5874.0\n7420.0 5968.0 6092.0 6482.0 6118.0 5870.0\n7368.0 5962.0 6090.0 6404.0 6100.0 5858.0\n7368.0 5962.0 6084.0 6368.0 6092.0 5870.0\n7370.0 5956.0 6096.0 6330.0 6064.0 5870.0\n7364.0 5952.0 6082.0 6292.0 6054.0 5860.0\n7314.0 5956.0 6080.0 6262.0 6024.0 5870.0\n7312.0 5950.0 6080.0 6230.0 6024.0 5868.0\n7280.0 5946.0 6066.0 6190.0 6004.0 5864.0\n7238.0 5948.0 6060.0 6112.0 5966.0 5858.0\n7206.0 5954.0 6038.0 6088.0 5944.0 5864.0\n7146.0 5952.0 6028.0 6040.0 5900.0 5862.0\n7050.0 5936.0 6016.0 5970.0 5842.0 5852.0\n7028.0 5938.0 6016.0 5954.0 5830.0 5866.0\n6990.0 5924.0 6006.0 5912.0 5788.0 5870.0\n6970.0 5936.0 5980.0 5884.0 5780.0 5866.0\n6924.0 5928.0 5988.0 5862.0 5770.0 5860.0\n6894.0 5926.0 5984.0 5856.0 5754.0 5854.0\n6874.0 5920.0 5974.0 5844.0 5744.0 5858.0\n6862.0 5928.0 5972.0 5842.0 5736.0 5868.0\n6838.0 5912.0 5960.0 5840.0 5706.0 5852.0\n6822.0 5920.0 5970.0 5830.0 5734.0 5864.0\n6802.0 5908.0 5954.0 5824.0 5734.0 5868.0\n6800.0 5888.0 5958.0 5824.0 5722.0 5866.0\n6794.0 5916.0 5960.0 5822.0 5728.0 5866.0\n6788.0 5906.0 5958.0 5816.0 5720.0 5870.0\n6782.0 5916.0 5960.0 5822.0 5722.0 5868.0\n6776.0 5914.0 5958.0 5818.0 5714.0 5860.0\n6770.0 5904.0 5968.0 5820.0 5706.0 5862.0\n6774.0 5904.0 5948.0 5810.0 5722.0 5880.0\n6782.0 5912.0 5948.0 5812.0 5706.0 5870.0\n6750.0 5912.0 5954.0 5824.0 5720.0 5858.0\n6764.0 5918.0 5962.0 5818.0 5710.0 5866.0\n6758.0 5922.0 5956.0 5820.0 5708.0 5860.0\n6758.0 5912.0 5942.0 5800.0 5700.0 5868.0\n6754.0 5912.0 5948.0 5816.0 5704.0 5860.0\n6758.0 5908.0 5956.0 5818.0 5712.0 5866.0\n6758.0 5916.0 5956.0 5812.0 5702.0 5866.0\n6756.0 5906.0 5962.0 5810.0 5706.0 5862.0\n6750.0 5920.0 5958.0 5808.0 5712.0 5860.0\n6756.0 5910.0 5950.0 5812.0 5708.0 5870.0\n6756.0 5906.0 5960.0 5808.0 5708.0 5864.0\n6756.0 5922.0 5958.0 5810.0 5710.0 5860.0\n6746.0 5910.0 5954.0 5804.0 5708.0 5864.0\n6744.0 5914.0 5944.0 5812.0 5708.0 5858.0\n6752.0 5914.0 5954.0 5812.0 5706.0 5858.0\n6750.0 5914.0 5944.0 5808.0 5712.0 5862.0\n6758.0 5912.0 5948.0 5812.0 5704.0 5856.0\n6756.0 5914.0 5948.0 5810.0 5708.0 5864.0\n6756.0 5910.0 5944.0 5794.0 5706.0 5864.0\n6754.0 5912.0 5950.0 5804.0 5706.0 5864.0\n6754.0 5912.0 5944.0 5806.0 5706.0 5868.0\n6752.0 5914.0 5954.0 5816.0 5702.0 5868.0\n6746.0 5914.0 5950.0 5798.0 5696.0 5866.0\n6756.0 5916.0 5952.0 5812.0 5696.0 5864.0\n6748.0 5920.0 5952.0 5804.0 5710.0 5864.0\n6748.0 5910.0 5956.0 5802.0 5698.0 5852.0\n6760.0 5908.0 5940.0 5808.0 5706.0 5866.0\n6740.0 5912.0 5946.0 5804.0 5710.0 5868.0\n6744.0 5912.0 5954.0 5804.0 5700.0 5858.0\n6754.0 5906.0 5946.0 5816.0 5700.0 5868.0\n6748.0 5916.0 5960.0 5814.0 5700.0 5860.0\n6758.0 5914.0 5952.0 5804.0 5698.0 5860.0\n6760.0 5906.0 5948.0 5810.0 5710.0 5864.0\n6754.0 5924.0 5948.0 5804.0 5704.0 5872.0\n6752.0 5906.0 5946.0 5806.0 5712.0 5874.0\n6762.0 5912.0 5956.0 5804.0 5714.0 5862.0\n6758.0 5912.0 5948.0 5804.0 5702.0 5864.0\n6760.0 5918.0 5954.0 5812.0 5694.0 5862.0\n6760.0 5920.0 5952.0 5806.0 5698.0 5858.0\n6762.0 5916.0 5954.0 5804.0 5702.0 5862.0\n6760.0 5914.0 5948.0 5806.0 5698.0 5866.0\n6758.0 5912.0 5950.0 5810.0 5698.0 5862.0\n6752.0 5912.0 5960.0 5802.0 5704.0 5868.0\n6750.0 5902.0 5942.0 5800.0 5702.0 5870.0\n6750.0 5910.0 5944.0 5812.0 5700.0 5862.0\n6748.0 5910.0 5948.0 5806.0 5702.0 5866.0\n6762.0 5906.0 5952.0 5804.0 5706.0 5862.0\n6748.0 5896.0 5954.0 5810.0 5706.0 5868.0\n6760.0 5898.0 5952.0 5802.0 5710.0 5862.0\n6754.0 5916.0 5958.0 5814.0 5698.0 5862.0\n6760.0 5898.0 5948.0 5804.0 5714.0 5868.0\n6754.0 5912.0 5950.0 5802.0 5710.0 5864.0\n6750.0 5902.0 5938.0 5808.0 5700.0 5860.0\n6758.0 5912.0 5952.0 5796.0 5702.0 5872.0\n6752.0 5912.0 5946.0 5812.0 5706.0 5868.0\n6756.0 5908.0 5946.0 5810.0 5708.0 5860.0\n6756.0 5908.0 5948.0 5798.0 5702.0 5866.0\n6756.0 5894.0 5956.0 5808.0 5706.0 5870.0\n6752.0 5906.0 5952.0 5810.0 5698.0 5860.0\n6764.0 5916.0 5948.0 5806.0 5712.0 5862.0\n6756.0 5902.0 5946.0 5810.0 5706.0 5866.0\n6752.0 5904.0 5952.0 5808.0 5706.0 5866.0\n6760.0 5908.0 5950.0 5812.0 5704.0 5874.0\n6764.0 5916.0 5942.0 5812.0 5704.0 5858.0\n6756.0 5914.0 5956.0 5798.0 5698.0 5870.0\n6756.0 5920.0 5950.0 5810.0 5708.0 5862.0\n6750.0 5916.0 5946.0 5804.0 5700.0 5870.0\n6756.0 5904.0 5952.0 5808.0 5706.0 5858.0\n6752.0 5910.0 5958.0 5802.0 5700.0 5868.0\n6756.0 5900.0 5950.0 5806.0 5704.0 5866.0\n6754.0 5918.0 5952.0 5814.0 5708.0 5864.0\n6760.0 5902.0 5948.0 5794.0 5708.0 5864.0\n6760.0 5912.0 5948.0 5796.0 5702.0 5864.0\n6760.0 5908.0 5950.0 5794.0 5702.0 5866.0\n6760.0 5914.0 5944.0 5802.0 5696.0 5860.0\n6758.0 5910.0 5950.0 5800.0 5694.0 5864.0\n6760.0 5916.0 5950.0 5810.0 5696.0 5862.0\n6756.0 5904.0 5948.0 5796.0 5704.0 5864.0\n6762.0 5902.0 5950.0 5808.0 5700.0 5862.0\n6744.0 5910.0 5944.0 5808.0 5708.0 5852.0\n6760.0 5906.0 5942.0 5794.0 5694.0 5862.0\n6756.0 5900.0 5944.0 5806.0 5700.0 5864.0\n6758.0 5902.0 5950.0 5802.0 5702.0 5860.0\n6758.0 5918.0 5948.0 5802.0 5696.0 5868.0\n6766.0 5906.0 5952.0 5796.0 5706.0 5860.0\n6762.0 5918.0 5948.0 5802.0 5704.0 5862.0\n6754.0 5910.0 5942.0 5794.0 5700.0 5860.0\n6756.0 5912.0 5954.0 5804.0 5700.0 5860.0\n6746.0 5904.0 5956.0 5790.0 5698.0 5858.0\n6762.0 5916.0 5954.0 5798.0 5700.0 5860.0\n6758.0 5906.0 5948.0 5802.0 5706.0 5860.0\n6746.0 5900.0 5946.0 5804.0 5706.0 5868.0\n6762.0 5910.0 5940.0 5800.0 5706.0 5864.0\n6756.0 5904.0 5946.0 5806.0 5700.0 5862.0\n6754.0 5904.0 5956.0 5838.0 5692.0 5862.0\n6754.0 5908.0 5942.0 5810.0 5702.0 5868.0\n6758.0 5906.0 5942.0 5800.0 5700.0 5862.0\n6756.0 5904.0 5956.0 5808.0 5698.0 5864.0\n6754.0 5914.0 5956.0 5798.0 5698.0 5870.0\n6760.0 5910.0 5950.0 5804.0 5704.0 5868.0\n6758.0 5902.0 5950.0 5808.0 5704.0 5868.0\n6746.0 5898.0 5948.0 5802.0 5710.0 5876.0\n6760.0 5914.0 5942.0 5798.0 5702.0 5864.0\n6768.0 5910.0 5952.0 5804.0 5702.0 5870.0\n6768.0 5900.0 5946.0 5806.0 5708.0 5866.0\n6756.0 5912.0 5948.0 5794.0 5714.0 5864.0\n6758.0 5912.0 5956.0 5808.0 5700.0 5862.0\n6758.0 5906.0 5956.0 5802.0 5704.0 5862.0\n6764.0 5920.0 5950.0 5796.0 5710.0 5868.0\n6776.0 5904.0 5956.0 5806.0 5698.0 5864.0\n6770.0 5912.0 5960.0 5802.0 5708.0 5876.0\n6768.0 5912.0 5950.0 5808.0 5706.0 5864.0\n6756.0 5910.0 5948.0 5812.0 5700.0 5868.0\n6758.0 5910.0 5946.0 5806.0 5708.0 5862.0\n6764.0 5916.0 5950.0 5804.0 5700.0 5862.0\n6772.0 5918.0 5954.0 5798.0 5692.0 5864.0\n6758.0 5914.0 5952.0 5798.0 5704.0 5864.0\n6758.0 5918.0 5948.0 5810.0 5700.0 5858.0\n6758.0 5908.0 5950.0 5802.0 5696.0 5868.0\n6760.0 5898.0 5956.0 5810.0 5692.0 5866.0\n6768.0 5912.0 5960.0 5800.0 5706.0 5860.0\n6764.0 5904.0 5950.0 5810.0 5710.0 5862.0\n6762.0 5906.0 5958.0 5814.0 5698.0 5862.0\n6758.0 5910.0 5958.0 5802.0 5710.0 5866.0\n6764.0 5912.0 5958.0 5804.0 5704.0 5862.0\n6752.0 5910.0 5956.0 5804.0 5700.0 5870.0\n6760.0 5910.0 5950.0 5804.0 5698.0 5862.0\n6758.0 5914.0 5956.0 5792.0 5696.0 5862.0\n6756.0 5912.0 5960.0 5802.0 5698.0 5868.0\n6756.0 5908.0 5962.0 5792.0 5700.0 5866.0\n6750.0 5910.0 5948.0 5792.0 5698.0 5866.0\n6756.0 5918.0 5956.0 5800.0 5702.0 5864.0\n6756.0 5922.0 5952.0 5802.0 5704.0 5870.0\n6750.0 5908.0 5956.0 5802.0 5694.0 5862.0\n6746.0 5910.0 5954.0 5798.0 5698.0 5860.0\n6756.0 5900.0 5950.0 5798.0 5700.0 5854.0\n6762.0 5906.0 5950.0 5806.0 5702.0 5866.0\n6754.0 5918.0 5948.0 5806.0 5700.0 5868.0\n6754.0 5894.0 5948.0 5792.0 5700.0 5860.0\n6750.0 5920.0 5954.0 5802.0 5702.0 5866.0\n6750.0 5904.0 5942.0 5790.0 5696.0 5864.0\n6752.0 5908.0 5956.0 5812.0 5698.0 5860.0\n6758.0 5904.0 5944.0 5806.0 5700.0 5878.0\n6756.0 5912.0 5958.0 5806.0 5696.0 5866.0\n6752.0 5912.0 5948.0 5800.0 5702.0 5856.0\n6752.0 5910.0 5948.0 5802.0 5694.0 5864.0\n